节点UV_HRD08281_00013.txt的数据
Date: Wed Jan 15 10:35:23 CST 2020
User: lab329
Spectrometer: HR+D0828
触发模式: 0
积分时间 (秒): 4.000000E-3
Scans to average: 10
启用暗噪声校正: false
启用非线性校正: false
滑动平均宽度: 0
X轴模式: Wavelengths
Number of Pixels in Spectrum: 2048
>>>>>Begin Spectral Data<<<<<
186.281	778.8
186.758	778.8
187.234	778.8
187.71	776.7
188.187	782.6
188.663	778.9
189.139	781.1
189.615	780.5
190.091	780.6
190.567	778.1
191.043	781.6
191.519	779.5
191.995	779.2
192.471	781.1
192.947	780.3
193.423	777.8
193.899	782.7
194.375	780.9
194.851	780.5
195.327	775.1
195.803	782.7
196.278	785.4
196.754	778.9
197.23	783.4
197.706	781
198.181	784.7
198.657	782.1
199.133	778.2
199.608	782.3
200.084	784.2
200.559	777.4
201.035	778.2
201.51	781.4
201.986	777.1
202.461	780.2
202.937	777.1
203.412	780.7
203.887	784.4
204.363	776
204.838	782.4
205.313	781.2
205.789	781.2
206.264	780.6
206.739	778.1
207.214	780
207.689	780.1
208.165	778.8
208.64	781
209.115	779.1
209.59	774.5
210.065	777.8
210.54	778.1
211.015	778.5
211.49	777.3
211.965	775.1
212.44	782
212.914	778.1
213.389	774.4
213.864	775.5
214.339	783.4
214.814	780.5
215.288	780.7
215.763	778.6
216.238	780.3
216.712	779.7
217.187	778.4
217.662	772.2
218.136	776.8
218.611	778.9
219.085	779
219.56	778.6
220.034	776.4
220.509	774.5
220.983	772.7
221.458	780.2
221.932	783.4
222.406	775
222.881	781.5
223.355	774.3
223.829	780.8
224.303	782
224.778	776.9
225.252	777.5
225.726	781.2
226.2	778.9
226.674	779.9
227.148	782
227.622	779.9
228.096	780.9
228.57	775.5
229.044	779.4
229.518	780.8
229.992	780.1
230.466	784.1
230.94	781.3
231.414	781.4
231.888	781.4
232.361	773.5
232.835	783.9
233.309	779.7
233.783	779
234.256	783.8
234.73	779.4
235.204	778.9
235.677	776.6
236.151	776
236.624	775.9
237.098	783.1
237.571	775.5
238.045	781.8
238.518	781.3
238.992	776.5
239.465	777.3
239.939	778.2
240.412	782.9
240.885	778.9
241.359	773.2
241.832	782.8
242.305	778
242.778	781.3
243.251	778.9
243.725	779.2
244.198	784
244.671	778.1
245.144	774.4
245.617	778.5
246.09	775.8
246.563	781
247.036	779.2
247.509	780.8
247.982	779.9
248.455	782.2
248.928	778
249.4	779.1
249.873	781.6
250.346	775
250.819	781.2
251.292	779.8
251.764	780.3
252.237	783.8
252.71	781.2
253.182	779.9
253.655	777.8
254.127	781.2
254.6	781.1
255.073	783.3
255.545	775
256.018	778.6
256.49	777.1
256.962	777.2
257.435	779.1
257.907	777.5
258.379	781.2
258.852	779
259.324	778
259.796	781.2
260.269	778.8
260.741	781.1
261.213	784.3
261.685	777.4
262.157	784.6
262.629	778.2
263.101	785.1
263.574	775.5
264.046	780.6
264.518	779.1
264.99	784.4
265.461	780.2
265.933	782.3
266.405	786.3
266.877	777.1
267.349	779
267.821	779.3
268.293	778.1
268.764	776.6
269.236	779
269.708	785.4
270.18	779.4
270.651	777.4
271.123	780.8
271.594	779.1
272.066	781.1
272.538	781.6
273.009	779.5
273.481	778.5
273.952	781.9
274.423	776.2
274.895	778.9
275.366	780.1
275.838	777.8
276.309	779.8
276.78	779.4
277.252	783.5
277.723	779.6
278.194	778.3
278.665	780.8
279.136	781.7
279.608	778.8
280.079	784.2
280.55	781.9
281.021	783.8
281.492	781.5
281.963	779.7
282.434	784.6
282.905	778.3
283.376	782.5
283.847	779.9
284.318	779.6
284.789	785.5
285.259	779
285.73	773.6
286.201	780.3
286.672	779.4
287.143	781.7
287.613	781.6
288.084	779.3
288.555	776.7
289.025	783.1
289.496	776.3
289.966	780.6
290.437	781.1
290.907	776.8
291.378	786.7
291.848	782.4
292.319	776.6
292.789	780
293.26	779.1
293.73	785.1
294.2	782
294.671	777.1
295.141	778.5
295.611	784.6
296.081	778.2
296.552	778.4
297.022	774.6
297.492	781.9
297.962	778.1
298.432	782.1
298.902	776.2
299.372	782.2
299.842	775.7
300.312	779.2
300.782	782.2
301.252	778.1
301.722	779.8
302.192	778.2
302.662	777.6
303.132	782.8
303.602	778.1
304.071	784.5
304.541	781.7
305.011	780.8
305.481	783.4
305.95	780.6
306.42	782.2
306.889	782.6
307.359	777.9
307.829	778
308.298	785.6
308.768	774.6
309.237	779.5
309.707	781.5
310.176	787.6
310.645	782.6
311.115	779.1
311.584	781.4
312.054	786.7
312.523	782.5
312.992	783.6
313.461	782
313.931	780.1
314.4	788.3
314.869	780.5
315.338	781.1
315.807	780.3
316.276	777.1
316.745	782.2
317.214	779.7
317.683	780.1
318.152	783.3
318.621	779.9
319.09	780.1
319.559	785.7
320.028	774
320.497	776.5
320.966	782.3
321.435	781
321.903	782.2
322.372	774.2
322.841	782.8
323.31	780
323.778	774.4
324.247	788.3
324.715	779
325.184	780.4
325.653	781.4
326.121	779.7
326.59	782.1
327.058	786.7
327.527	782.3
327.995	781.6
328.463	777.5
328.932	777.7
329.4	777.9
329.868	779.2
330.337	779.8
330.805	782.2
331.273	778.3
331.741	777.6
332.21	784
332.678	782.5
333.146	781
333.614	784.5
334.082	781.7
334.55	779.5
335.018	777
335.486	783.8
335.954	781.5
336.422	780
336.89	783.9
337.358	784.9
337.826	780.3
338.294	786.6
338.762	778.2
339.229	782.3
339.697	785.6
340.165	782.4
340.633	777.5
341.1	785.9
341.568	780.2
342.035	785.6
342.503	781.9
342.971	779.8
343.438	779
343.906	775.9
344.373	784.2
344.841	782.7
345.308	780.8
345.776	782
346.243	785
346.71	781.4
347.178	786
347.645	778.3
348.112	783.6
348.58	782.6
349.047	781.6
349.514	786
349.981	781.6
350.448	782.4
350.915	780.7
351.383	779.3
351.85	781
352.317	782.8
352.784	780.3
353.251	783.6
353.718	784.4
354.185	785.6
354.651	786.2
355.118	782.5
355.585	783.3
356.052	784.7
356.519	780.1
356.986	785.4
357.452	777.4
357.919	781.1
358.386	777.5
358.853	783.1
359.319	782.5
359.786	783.4
360.252	780.5
360.719	782.3
361.185	786.4
361.652	779.7
362.118	781.2
362.585	780.4
363.051	780.5
363.518	782.5
363.984	780
364.451	790.8
364.917	781.6
365.383	776.6
365.849	783.9
366.316	785.4
366.782	781.5
367.248	778.6
367.714	778.8
368.18	788.1
368.647	790.2
369.113	777.5
369.579	784.5
370.045	783.4
370.511	779
370.977	781.8
371.443	781.3
371.909	785.7
372.374	781.7
372.84	779.7
373.306	782.8
373.772	784.7
374.238	783.6
374.704	783.2
375.169	781.4
375.635	789.7
376.101	785.2
376.566	783.2
377.032	781.6
377.498	786.6
377.963	782.7
378.429	780.9
378.894	782
379.36	783.2
379.825	782.5
380.291	786.7
380.756	787.7
381.222	786.4
381.687	781.3
382.152	784.7
382.618	784.8
383.083	785.8
383.548	780.8
384.013	784.5
384.479	786.2
384.944	785.4
385.409	783.9
385.874	785.8
386.339	790.7
386.804	790.7
387.269	790.9
387.734	792.8
388.199	789.7
388.664	789.1
389.129	790.1
389.594	787
390.059	793.8
390.524	791.5
390.989	800.6
391.453	795.1
391.918	794.5
392.383	797.8
392.848	800.5
393.312	803.9
393.777	802.7
394.242	808.7
394.706	809
395.171	813.5
395.635	814.6
396.1	822.3
396.565	823.2
397.029	830.5
397.493	839
397.958	849.6
398.422	863.9
398.887	883.3
399.351	921.3
399.815	969.4
400.28	1037.5
400.744	1117.1
401.208	1232.7
401.672	1393.8
402.137	1593.9
402.601	1857.8
403.065	2235.8
403.529	2729.3
403.993	3345.2
404.457	4076.5
404.921	4901.7
405.385	5796.7
405.849	6873.5
406.313	7866.7
406.777	8706.1
407.241	9412.3
407.705	10268.2
408.169	10882.6
408.632	11310.7
409.096	11480.5
409.56	11328.3
410.024	10819.1
410.487	10150.2
410.951	9411.3
411.415	8688.2
411.878	8071.4
412.342	7455.3
412.806	6782.4
413.269	6111.6
413.733	5376.7
414.196	4803.8
414.66	4261
415.123	3723.2
415.587	3182.5
416.05	2762.3
416.513	2382.6
416.977	2050.2
417.44	1786.1
417.903	1576.8
418.366	1415.1
418.83	1294.3
419.293	1185.4
419.756	1097.5
420.219	1037.6
420.682	985.1
421.145	952
421.608	919.1
422.072	900.2
422.535	887.4
422.998	869.7
423.46	863.1
423.923	848
424.386	853.3
424.849	844.6
425.312	836.1
425.775	832.2
426.238	828.2
426.7	826.6
427.163	825
427.626	823.8
428.089	815.9
428.551	822.1
429.014	810.5
429.477	814.9
429.939	818.1
430.402	816
430.864	807.3
431.327	807.3
431.789	800.1
432.252	800.1
432.714	803.9
433.176	802.7
433.639	798.6
434.101	796
434.563	799.5
435.026	793.9
435.488	791.3
435.95	793.5
436.412	787.7
436.875	792.9
437.337	790.2
437.799	793.3
438.261	793.1
438.723	789.6
439.185	788.3
439.647	788.8
440.109	792.6
440.571	793.4
441.033	786.2
441.495	781.6
441.957	789.2
442.419	789.7
442.881	786.6
443.342	787
443.804	790.2
444.266	786.5
444.728	790.6
445.189	784.8
445.651	789.2
446.113	788
446.574	786.8
447.036	785.9
447.497	781.9
447.959	785.1
448.421	786.5
448.882	782.4
449.343	783
449.805	787.2
450.266	788.4
450.728	787.4
451.189	779.8
451.65	778.8
452.112	785.8
452.573	786.5
453.034	787.3
453.495	787.7
453.957	779.9
454.418	786.1
454.879	785.9
455.34	783
455.801	779
456.262	781.1
456.723	783.3
457.184	786.5
457.645	785
458.106	784.5
458.567	785.5
459.028	783.9
459.489	782
459.95	781.6
460.41	787.1
460.871	782.2
461.332	782.2
461.793	777.8
462.253	784.6
462.714	777.9
463.175	782.8
463.635	783
464.096	782.6
464.556	781.8
465.017	781.5
465.478	785.1
465.938	782
466.398	782
466.859	782.5
467.319	780.8
467.78	782.3
468.24	781.5
468.7	782.2
469.161	781.5
469.621	781
470.081	778.1
470.541	786.1
471.002	787.1
471.462	783.4
471.922	791.1
472.382	782.3
472.842	781.7
473.302	786.7
473.762	780.5
474.222	783.6
474.682	782.4
475.142	789.2
475.602	787.9
476.062	780.7
476.522	782.2
476.982	783.7
477.442	782.7
477.901	791
478.361	787.9
478.821	783.4
479.281	782.4
479.74	786.3
480.2	785.5
480.659	786.8
481.119	783.1
481.579	787.3
482.038	784.5
482.498	780.3
482.957	783
483.417	777.6
483.876	780.4
484.336	781.1
484.795	772.1
485.254	775.8
485.714	779.4
486.173	775.1
486.632	780.4
487.091	781.7
487.551	775.5
488.01	781.9
488.469	778.9
488.928	782.4
489.387	784.7
489.846	777.2
490.305	780.6
490.764	780.2
491.223	777.1
491.682	779.3
492.141	777.4
492.6	776.9
493.059	777.9
493.518	776
493.977	780.9
494.436	782.4
494.895	781.3
495.353	782.3
495.812	778.2
496.271	783.2
496.729	783.5
497.188	786.5
497.647	780.4
498.105	774.4
498.564	777.3
499.022	775.5
499.481	778.2
499.939	780.2
500.398	775.8
500.856	776.2
501.315	778.3
501.773	783.9
502.232	778.2
502.69	784.5
503.148	781.8
503.606	775.9
504.065	779.5
504.523	777.3
504.981	780.1
505.439	777.6
505.897	775.5
506.356	780.7
506.814	777.2
507.272	774.2
507.73	776.7
508.188	780.2
508.646	779.1
509.104	780.9
509.562	775.7
510.02	783.3
510.477	780.9
510.935	774
511.393	781.1
511.851	773.3
512.309	776.8
512.766	779
513.224	776.6
513.682	780.3
514.139	778.5
514.597	782.2
515.055	778.6
515.512	779.9
515.97	778.3
516.427	778
516.885	776
517.342	776.6
517.8	776.9
518.257	778.3
518.714	774.7
519.172	782.1
519.629	777.3
520.086	775.1
520.544	780.2
521.001	780.4
521.458	780.7
521.915	773.5
522.373	775.5
522.83	778.1
523.287	774.9
523.744	780.3
524.201	776.3
524.658	780.3
525.115	775.8
525.572	774.1
526.029	777.8
526.486	779.7
526.943	779.5
527.4	773.5
527.857	775
528.313	779.4
528.77	781.4
529.227	776.9
529.684	779.2
530.14	773.9
530.597	774.7
531.054	774.7
531.51	777
531.967	777.8
532.423	779.4
532.88	777.9
533.337	778.2
533.793	775.7
534.25	775.1
534.706	774.1
535.162	779
535.619	774.9
536.075	778.6
536.531	778
536.988	783.7
537.444	778.5
537.9	780.3
538.356	782.2
538.813	778.9
539.269	776.2
539.725	782.8
540.181	774.3
540.637	774.1
541.093	778.2
541.549	776
542.005	777.1
542.461	779
542.917	777
543.373	775.9
543.829	778.4
544.285	776.8
544.741	774.3
545.197	779
545.652	776.1
546.108	778.4
546.564	775.3
547.02	774.8
547.475	775
547.931	780.2
548.387	779
548.842	776.1
549.298	780.8
549.753	776.2
550.209	772.5
550.664	773
551.12	779.4
551.575	778.2
552.031	776.5
552.486	775.5
552.941	777.1
553.397	780.5
553.852	777.1
554.307	775.7
554.762	774.5
555.218	778.3
555.673	776.9
556.128	770.6
556.583	778.6
557.038	785.2
557.493	771.5
557.948	776.7
558.403	776.7
558.858	778.1
559.313	775.9
559.768	771.8
560.223	778.7
560.678	776.2
561.133	772.5
561.588	776.9
562.043	774.1
562.497	774.4
562.952	777.6
563.407	771.4
563.862	776.9
564.316	776
564.771	774.6
565.226	781.1
565.68	774.2
566.135	771.9
566.589	776.3
567.044	774.3
567.498	774.8
567.953	780.5
568.407	773.9
568.862	775.1
569.316	778.7
569.77	778
570.225	784.4
570.679	772.8
571.133	776
571.587	777.6
572.042	776.5
572.496	774.8
572.95	785.3
573.404	776.1
573.858	774.9
574.312	778.9
574.766	776.4
575.22	775.3
575.674	773.7
576.128	778.4
576.582	777.9
577.036	775.3
577.49	777.3
577.944	775.3
578.398	779.3
578.852	775.1
579.305	776.5
579.759	773.7
580.213	772.9
580.666	772.3
581.12	780.5
581.574	776.5
582.027	777.6
582.481	779.6
582.935	778.3
583.388	775.9
583.842	778.7
584.295	771.2
584.748	775.9
585.202	776.4
585.655	772.9
586.109	776.2
586.562	778.5
587.015	775.6
587.469	774.2
587.922	774.8
588.375	780.8
588.828	775.2
589.281	772.8
589.735	774.5
590.188	773.9
590.641	776.6
591.094	778.2
591.547	774.2
592	777.5
592.453	775.3
592.906	776.2
593.359	779.9
593.812	780.6
594.265	778.6
594.717	772.6
595.17	776.5
595.623	774.7
596.076	778.9
596.529	775.7
596.981	777.9
597.434	772
597.887	775.5
598.339	776.9
598.792	780.3
599.245	779.6
599.697	778.6
600.15	778.4
600.602	781.7
601.055	773.2
601.507	771.9
601.959	778.1
602.412	773.7
602.864	778.4
603.316	775
603.769	773.3
604.221	776.9
604.673	775.3
605.126	771.5
605.578	778.3
606.03	778.8
606.482	773.1
606.934	778.9
607.386	774.4
607.838	778.8
608.29	774.1
608.742	772.3
609.194	775.7
609.646	774.2
610.098	773.2
610.55	776.2
611.002	774.1
611.454	777.9
611.906	775.9
612.357	776
612.809	778.1
613.261	774.2
613.713	771.8
614.164	775.2
614.616	778.7
615.068	774.5
615.519	774.1
615.971	776.9
616.422	774.7
616.874	779
617.325	777.5
617.777	776.7
618.228	775.5
618.68	779.7
619.131	775.3
619.582	774
620.034	778.7
620.485	775.3
620.936	773.9
621.387	775.4
621.839	780.3
622.29	771.7
622.741	772.7
623.192	773.9
623.643	777.8
624.094	776.3
624.545	776.7
624.996	775.7
625.447	775.3
625.898	777.5
626.349	773.9
626.8	775.3
627.251	773.8
627.702	779.6
628.153	770.3
628.604	778.9
629.054	775
629.505	771.9
629.956	774.2
630.406	774.3
630.857	773.5
631.308	778.5
631.758	778
632.209	777.1
632.66	778.9
633.11	772.8
633.561	778.5
634.011	773.2
634.461	771.5
634.912	777.1
635.362	776.2
635.813	780.9
636.263	778.9
636.713	767.9
637.164	776.8
637.614	776.7
638.064	773.5
638.514	781.8
638.964	775.4
639.415	772
639.865	776.6
640.315	776
640.765	775.2
641.215	776
641.665	777.1
642.115	774.7
642.565	774.8
643.015	773.4
643.465	777.3
643.915	775.2
644.364	779.2
644.814	778.3
645.264	776.3
645.714	778.9
646.163	774.3
646.613	774.2
647.063	778.7
647.513	773.5
647.962	777.7
648.412	776.9
648.861	775.4
649.311	776.8
649.76	776.9
650.21	773.2
650.659	777.6
651.109	778.9
651.558	780.2
652.008	781.4
652.457	772.7
652.906	777.5
653.356	778.8
653.805	774.8
654.254	780.5
654.703	775.4
655.152	779.5
655.602	777.8
656.051	769.7
656.5	776.4
656.949	775.7
657.398	768.9
657.847	778.4
658.296	777.3
658.745	777
659.194	776.9
659.643	774.7
660.092	771.6
660.541	778.4
660.989	778.7
661.438	777.8
661.887	777.5
662.336	772.7
662.784	778.8
663.233	772.6
663.682	775
664.13	780
664.579	773.5
665.028	777.3
665.476	773.5
665.925	773.4
666.373	777.1
666.822	776.9
667.27	776.4
667.719	779.6
668.167	777.8
668.615	778.1
669.064	776.3
669.512	778.6
669.96	778.6
670.408	775.3
670.857	777.4
671.305	774.3
671.753	772.9
672.201	776.2
672.649	774.7
673.097	773.1
673.545	774.4
673.993	775.6
674.441	780.9
674.889	777.9
675.337	775.3
675.785	780.4
676.233	772.8
676.681	771.2
677.129	775.5
677.577	776.8
678.025	778.4
678.472	777.4
678.92	771.1
679.368	774.6
679.815	776.2
680.263	772.8
680.711	777.1
681.158	777.6
681.606	777.2
682.053	779.1
682.501	776
682.948	776.7
683.396	781.9
683.843	777.1
684.291	775.8
684.738	778.5
685.185	773.9
685.633	779.8
686.08	774.9
686.527	775.9
686.974	784.4
687.422	774.7
687.869	774.3
688.316	772.5
688.763	773.9
689.21	773.2
689.657	778.2
690.104	776.8
690.551	774.2
690.998	773.6
691.445	774.3
691.892	776.6
692.339	775.7
692.786	779.7
693.233	773.3
693.68	771
694.127	778.8
694.573	776.9
695.02	775.3
695.467	773.3
695.913	775.2
696.36	772.7
696.807	773.3
697.253	777.4
697.7	779.1
698.146	775.9
698.593	779.3
699.039	779.3
699.486	773.8
699.932	771.1
700.379	779
700.825	778.6
701.272	779.4
701.718	775.3
702.164	772.6
702.61	778.2
703.057	773.2
703.503	774.8
703.949	776.7
704.395	775
704.841	774
705.287	773.2
705.734	779.4
706.18	783.3
706.626	774.3
707.072	778.6
707.518	778.3
707.964	773.4
708.409	772.2
708.855	776.4
709.301	774.7
709.747	778
710.193	778.7
710.639	778.2
711.084	776.6
711.53	772.4
711.976	774
712.421	773.3
712.867	773.5
713.313	774.7
713.758	772.2
714.204	779.4
714.649	780.4
715.095	772.9
715.54	783
715.986	781
716.431	777
716.877	778.6
717.322	776.7
717.767	781.2
718.213	778.8
718.658	777.1
719.103	775.8
719.548	777.7
719.994	775.6
720.439	782.8
720.884	774.1
721.329	772.3
721.774	780.7
722.219	772.1
722.664	773.9
723.109	778.6
723.554	776.2
723.999	775.8
724.444	775.3
724.889	776.5
725.334	774.7
725.779	769.2
726.223	777.4
726.668	773.5
727.113	779.3
727.558	776
728.002	776.2
728.447	773.4
728.892	777.6
729.336	773.7
729.781	780.1
730.225	779.3
730.67	773.2
731.114	777.1
731.559	779.9
732.003	774.5
732.448	776.7
732.892	779.3
733.337	774.6
733.781	777.9
734.225	778.4
734.67	776.1
735.114	772.5
735.558	776.1
736.002	780.7
736.446	779
736.891	778.7
737.335	778.4
737.779	775.2
738.223	778.1
738.667	779.9
739.111	775.6
739.555	778.2
739.999	777.3
740.443	782.3
740.887	777.7
741.33	776.6
741.774	780
742.218	779.3
742.662	779.3
743.106	773.8
743.549	777.9
743.993	778.5
744.437	777.5
744.88	775.3
745.324	776.9
745.768	776.4
746.211	776.7
746.655	774.8
747.098	781.1
747.542	781.7
747.985	781.5
748.429	777.5
748.872	777.9
749.315	773.9
749.759	771.8
750.202	773.2
750.645	783.1
751.089	775
751.532	778.2
751.975	778.5
752.418	779.7
752.861	777.7
753.305	775.8
753.748	774.8
754.191	782.8
754.634	775.7
755.077	773.5
755.52	779.6
755.963	777.5
756.406	776.9
756.849	773.6
757.291	780.3
757.734	777.1
758.177	775.9
758.62	776.7
759.063	778.1
759.505	780.8
759.948	776
760.391	778.7
760.833	780.8
761.276	784.3
761.719	773.5
762.161	777.2
762.604	778.6
763.046	773.1
763.489	780.8
763.931	781.3
764.374	774.6
764.816	778.8
765.258	774.2
765.701	783.8
766.143	779.8
766.585	778.4
767.028	778.4
767.47	778.1
767.912	772.9
768.354	780
768.796	772
769.238	777.8
769.681	778
770.123	774.7
770.565	782
771.007	780
771.449	771.9
771.891	778.5
772.333	772.1
772.774	779.7
773.216	778.3
773.658	775.7
774.1	776
774.542	778.7
774.984	780
775.425	779.2
775.867	776.8
776.309	772.2
776.75	780.5
777.192	776.5
777.634	775.2
778.075	778.6
778.517	771.7
778.958	776.2
779.4	775.6
779.841	777.4
780.283	778.3
780.724	776.9
781.165	776
781.607	776.2
782.048	777.9
782.489	778.6
782.931	773.7
783.372	776.5
783.813	779.6
784.254	773.7
784.695	774.6
785.136	776.4
785.578	775.5
786.019	776.9
786.46	773.3
786.901	776.6
787.342	781.5
787.783	777.2
788.224	777
788.664	777.6
789.105	770.8
789.546	777.2
789.987	778.7
790.428	774.9
790.869	783.6
791.309	772.7
791.75	775.5
792.191	775.2
792.631	776.6
793.072	780.5
793.513	775.1
793.953	775.9
794.394	774.4
794.834	777.9
795.275	779.9
795.715	781.8
796.156	771.8
796.596	778.9
797.036	781.5
797.477	770.3
797.917	781.1
798.357	774
798.798	780.3
799.238	776.3
799.678	776.8
800.118	782
800.558	779.1
800.998	779.3
801.439	774.7
801.879	779.8
802.319	776.1
802.759	777.3
803.199	776.2
803.639	780.6
804.079	782.3
804.518	777.7
804.958	775
805.398	776.6
805.838	777.1
806.278	777.4
806.718	775.2
807.157	780.2
807.597	780.3
808.037	778.4
808.476	780
808.916	777.2
809.356	773.1
809.795	772.3
810.235	774.8
810.674	775.4
811.114	780.2
811.553	771.7
811.993	777.5
812.432	776.2
812.871	777.4
813.311	776.4
813.75	774.3
814.189	777.4
814.629	776
815.068	773
815.507	779.5
815.946	777.6
816.385	776.3
816.824	776.7
817.263	775.7
817.703	785
818.142	778.7
818.581	774
819.02	778
819.459	780.2
819.897	776.1
820.336	780.2
820.775	775.8
821.214	774
821.653	776.5
822.092	772.7
822.53	777.8
822.969	782.1
823.408	776.6
823.847	778.4
824.285	778.3
824.724	778.8
825.162	778.3
825.601	779.5
826.04	781.4
826.478	780.1
826.916	771.6
827.355	781.1
827.793	775.6
828.232	775.6
828.67	776.3
829.108	774.7
829.547	781.1
829.985	781.8
830.423	776.1
830.862	780.5
831.3	779.2
831.738	780.3
832.176	774.6
832.614	777.3
833.052	774.1
833.49	783.9
833.928	775.9
834.366	774.9
834.804	778.2
835.242	771.7
835.68	775.3
836.118	775.2
836.556	777.8
836.994	775.5
837.432	772.6
837.869	778.9
838.307	777.3
838.745	779.9
839.183	777.8
839.62	775.7
840.058	779.6
840.496	777.9
840.933	775.5
841.371	781.3
841.808	779.3
842.246	772.2
842.683	775.7
843.121	777.4
843.558	775.2
843.995	776.4
844.433	777.3
844.87	779.1
845.307	776.7
845.745	774.3
846.182	774
846.619	781.4
847.056	782.5
847.494	779.1
847.931	781.5
848.368	779.6
848.805	777.5
849.242	769.6
849.679	776.1
850.116	779.6
850.553	773.7
850.99	779.1
851.427	779.2
851.864	776.6
852.301	781.2
852.737	771.3
853.174	778.6
853.611	775
854.048	776.1
854.484	777.5
854.921	776.9
855.358	776.9
855.794	779
856.231	778.1
856.668	777.6
857.104	780.5
857.541	775.7
857.977	777.2
858.414	784.4
858.85	779.7
859.286	784.3
859.723	780.1
860.159	778.3
860.596	777.4
861.032	776
861.468	779
861.904	780.3
862.341	779.5
862.777	779.8
863.213	771.6
863.649	779.6
864.085	782.5
864.521	775.6
864.957	777.5
865.393	776.1
865.829	776.2
866.265	777.9
866.701	776.3
867.137	777.1
867.573	781.6
868.009	780.2
868.445	779.1
868.88	775.8
869.316	773.2
869.752	777.5
870.188	776.9
870.623	773.7
871.059	781.5
871.495	780.4
871.93	781.8
872.366	781.2
872.801	775.4
873.237	774.1
873.672	784.1
874.108	779.7
874.543	776.8
874.979	775.5
875.414	777.5
875.849	776.7
876.285	775.9
876.72	779.3
877.155	779.2
877.59	776.3
878.026	775.9
878.461	777.1
878.896	779.9
879.331	781.4
879.766	774.1
880.201	773.2
880.636	779.4
881.071	774.5
881.506	777.3
881.941	772.1
882.376	777.5
882.811	779.3
883.246	777.3
883.681	774.5
884.116	782.3
884.55	777.1
884.985	777.3
885.42	784
885.855	775.1
886.289	776.6
886.724	777.1
887.159	774.1
887.593	777.7
888.028	776
888.462	772.4
888.897	775.7
889.331	778.3
889.766	780.7
890.2	773.2
890.634	779.2
891.069	775.6
891.503	775.1
891.937	778.2
892.372	780.9
892.806	777.9
893.24	776.4
893.674	772.5
894.109	780.2
894.543	776.6
894.977	778.4
895.411	778.4
895.845	780
896.279	773.1
896.713	778.1
897.147	775.2
897.581	777
898.015	775.8
898.449	777.6
898.883	779.2
899.316	782.9
899.75	776.5
900.184	777.4
900.618	780.4
901.051	777
901.485	780.2
901.919	778.3
902.352	776
902.786	776.8
903.22	774.1
903.653	778.6
904.087	780
904.52	774.3
904.954	775.9
905.387	779.9
905.82	781.9
906.254	778.7
906.687	776.2
907.121	772.8
907.554	784.5
907.987	778.9
908.42	778.5
908.854	777.6
909.287	777.7
909.72	778.7
910.153	779
910.586	774.1
911.019	778.4
911.452	778.3
911.885	776.8
912.318	779.2
912.751	777.9
913.184	780.1
913.617	775.3
914.05	780.2
914.483	776.6
914.916	773.2
915.348	775.1
915.781	774.5
916.214	778.5
916.647	777.9
917.079	775.9
917.512	777.8
917.944	777.7
918.377	778.2
918.81	774.8
919.242	777.5
919.675	777.8
920.107	777.6
920.54	775.4
920.972	779
921.404	778.8
921.837	775.3
922.269	778.8
922.701	779.9
923.134	776.9
923.566	775.5
923.998	777
924.43	778.3
924.863	777.9
925.295	777
925.727	777.9
926.159	780.2
926.591	775.8
927.023	780.5
927.455	781.1
927.887	780.3
928.319	777.1
928.751	776.1
929.183	779.9
929.615	775.1
930.046	777.7
930.478	773.5
930.91	776.3
931.342	779.1
931.773	774.8
932.205	778.4
932.637	779
933.068	774.2
933.5	778.1
933.932	782.3
934.363	779.4
934.795	776.1
935.226	781.5
935.658	775.6
936.089	775.8
936.521	777.1
936.952	773.7
937.383	774.9
937.815	780.7
938.246	777.2
938.677	777.6
939.108	771.9
939.54	781.9
939.971	776.6
940.402	777
940.833	777.8
941.264	778.3
941.695	776.2
942.126	775.1
942.557	780.8
942.988	774.6
943.419	776.1
943.85	777.4
944.281	778.7
944.712	774.7
945.143	774
945.574	780.8
946.004	779.2
946.435	772.8
946.866	779.9
947.297	777.9
947.727	780.1
948.158	778.7
948.588	778.6
949.019	773.7
949.45	777.9
949.88	775.5
950.311	773.6
950.741	778.5
951.172	775.9
951.602	778.4
952.032	775
952.463	778.3
952.893	775.9
953.323	779.8
953.754	777.8
954.184	781.9
954.614	775.9
955.044	778.9
955.475	779.9
955.905	778.8
956.335	782.6
956.765	773.4
957.195	775
957.625	775.9
958.055	776.3
958.485	778.1
958.915	776
959.345	777.1
959.775	781.1
960.204	776.2
960.634	778.8
961.064	776.6
961.494	772.7
961.924	777.2
962.353	772.2
962.783	773.5
963.213	780.1
963.642	779.4
964.072	778.3
964.501	780.9
964.931	773.8
965.361	778.1
965.79	775.1
966.219	780.3
966.649	779.8
967.078	772.9
967.508	777.6
967.937	781.1
968.366	774.6
968.796	780.3
969.225	774.1
969.654	777.3
970.083	778.4
970.513	770.7
970.942	776.6
971.371	777
971.8	775.8
972.229	779.3
972.658	777.8
973.087	777.2
973.516	777
973.945	774.8
974.374	779.3
974.803	779.8
975.232	771.6
975.66	776.1
976.089	776.1
976.518	777.6
976.947	776
977.375	775.4
977.804	779.8
978.233	777.9
978.661	773.6
979.09	775.2
979.519	781.7
979.947	776.8
980.376	782
980.804	775.5
981.233	773.1
981.661	774.4
982.09	768.2
982.518	774.3
982.946	781
983.375	773.7
983.803	776.8
984.231	777
984.659	781
985.088	780.9
985.516	779.6
985.944	776.9
986.372	776.4
986.8	778.6
987.228	781.9
987.656	777.1
988.084	777.6
988.512	782.9
988.94	778.3
989.368	782.8
989.796	776.4
990.224	775.9
990.652	775.9
991.08	778.7
991.507	777.9
991.935	780.4
992.363	778.5
992.791	776.2
993.218	779.5
993.646	773.8
994.074	776.4
994.501	777.6
994.929	778.1
995.356	774.2
995.784	773.3
996.211	774.3
996.639	779.3
997.066	776.6
997.493	775.9
997.921	777.8
998.348	772.8
998.775	773
999.203	778.3
999.63	778.6
1000.057	776.3
1000.484	776.9
1000.912	777.8
1001.339	777.6
1001.766	771.6
1002.193	777
1002.62	778.5
1003.047	779.2
1003.474	775
1003.901	772.7
1004.328	778
1004.755	779.8
1005.182	773.5
1005.608	776.9
1006.035	778.5
1006.462	777.7
1006.889	778.6
1007.316	779.2
1007.742	774.8
1008.169	773.5
1008.596	770
1009.022	775.6
1009.449	780.1
1009.875	773.9
1010.302	779.4
1010.728	778.2
1011.155	780.6
1011.581	775.1
1012.008	772.3
1012.434	778.1
1012.861	773.2
1013.287	773.2
1013.713	778.6
1014.139	775.1
1014.566	777.4
1014.992	775.7
1015.418	773.8
1015.844	775.5
1016.27	778.9
1016.697	774.9
1017.123	774.6
1017.549	775.7
1017.975	777.5
1018.401	780
1018.827	778.2
1019.253	774.7
1019.679	776.1
1020.104	771.3
1020.53	770.9
1020.956	773.5
1021.382	778.7
1021.808	770.8
1022.233	770.7
1022.659	775
1023.085	771.8
1023.51	775.2
1023.936	778.2
1024.362	775.6
1024.787	780.7
1025.213	779.9
1025.638	774.5
1026.064	774.1
1026.489	778
1026.915	773.4
1027.34	774.9
1027.765	773.8
1028.191	771.8
1028.616	781.3
1029.041	783.9
1029.467	775.1
1029.892	780.7
1030.317	779
1030.742	775.5
1031.167	775.6
1031.592	771.5
1032.018	779.6
1032.443	781.9
1032.868	778.3
1033.293	777.9
1033.718	776.6
1034.143	776.9
1034.567	780.1
1034.992	774.5
1035.417	773.1
1035.842	777.6
1036.267	777.8
1036.692	775.6
1037.116	771.4
1037.541	774.1
1037.966	776.7
1038.39	774.2
1038.815	772.9
1039.24	778.4
1039.664	775.5
1040.089	773.8
1040.513	778.3
1040.938	776.2
1041.362	773.5
1041.787	778
1042.211	777.8
1042.635	774.2
1043.06	775.2
1043.484	776.1
1043.908	774.6
1044.333	780.2
1044.757	777.8
1045.181	770.4
1045.605	779.2
1046.029	774.6
1046.454	776.2
1046.878	781
1047.302	774.7
1047.726	775.6
1048.15	780.3
1048.574	772.6
1048.998	783.8
1049.422	776
1049.845	774.7
1050.269	778.3
1050.693	774.8
1051.117	780.4
1051.541	780.3
1051.964	777.3
1052.388	773.7
1052.812	774.9
1053.235	776.5
1053.659	777.8
1054.083	778.1
1054.506	772.7
1054.93	776.4
1055.353	775
1055.777	777.2
1056.2	780.6
1056.624	773.1
1057.047	773
1057.471	777.3
1057.894	775.2
1058.317	778.1
1058.74	775.9
1059.164	777.8
1059.587	778
1060.01	775
1060.433	782.1
1060.856	777.9
1061.28	775
1061.703	776.3
1062.126	776.7
1062.549	774.5
1062.972	777.4
1063.395	770.9
1063.818	775.5
1064.241	782.4
1064.663	773.1
1065.086	775.4
1065.509	777.4
1065.932	778.5
1066.355	774
1066.777	772.8
1067.2	776.3
1067.623	775
1068.046	770.1
1068.468	778.5
1068.891	778.7
1069.313	776.2
1069.736	772.4
1070.158	769.9
1070.581	774.3
1071.003	777
1071.426	778.4
1071.848	774.9
1072.271	772.9
1072.693	778.6
1073.115	778.5
1073.538	776.7
1073.96	774.4
1074.382	775.1
1074.804	776
1075.226	774.4
1075.649	777.4
1076.071	774.3
1076.493	775.3
1076.915	777.3
1077.337	776.4
1077.759	778
1078.181	771.5
1078.603	774.3
1079.025	778.2
1079.447	775.1
1079.868	776.4
1080.29	776.3
1080.712	777.4
1081.134	774
1081.556	776.4
1081.977	775.5
1082.399	774.1
1082.821	774
1083.242	777.9
1083.664	780.6
1084.085	779.8
1084.507	773.2
1084.928	774.9
1085.35	775.6
1085.771	781.4
1086.193	771.1
1086.614	774.6
1087.036	775.1
1087.457	772.8
1087.878	778
1088.3	776.6
1088.721	778.5
1089.142	778.7
1089.563	772.1
1089.984	778.9
1090.406	775.7
1090.827	778
1091.248	776.1
1091.669	774.9
1092.09	777.7
1092.511	782.3
1092.932	780.2
1093.353	780.8
1093.774	779
1094.195	774.5
1094.615	780.4
1095.036	777.9
1095.457	780.7
1095.878	778
1096.299	775.1
1096.719	776.2
1097.14	778.9
1097.561	775.1
1097.981	776.1
1098.402	778.3
1098.822	775.4
1099.243	773.9
1099.663	775
1100.084	775.2
1100.504	776.4
1100.925	776
1101.345	771
1101.766	773.8
1102.186	773.9
1102.606	781.5
1103.026	777.2
1103.447	775.6
1103.867	778.3
1104.287	771.2
1104.707	777.5
