节点UV_HRD08281_00026.txt的数据
Date: Wed Jan 15 10:40:19 CST 2020
User: lab329
Spectrometer: HR+D0828
触发模式: 0
积分时间 (秒): 1.000000E-3
Scans to average: 10
启用暗噪声校正: false
启用非线性校正: false
滑动平均宽度: 0
X轴模式: Wavelengths
Number of Pixels in Spectrum: 2048
>>>>>Begin Spectral Data<<<<<
186.281	778.5
186.758	778.5
187.234	778.5
187.71	782.4
188.187	783.1
188.663	778.3
189.139	782.4
189.615	781.9
190.091	783.7
190.567	779.5
191.043	776.4
191.519	782
191.995	779.7
192.471	780.8
192.947	777
193.423	773
193.899	782.7
194.375	783.4
194.851	778.7
195.327	782.4
195.803	783.6
196.278	782.3
196.754	781.2
197.23	778.6
197.706	781.4
198.181	779.7
198.657	782.2
199.133	782.5
199.608	775.6
200.084	775.6
200.559	777.3
201.035	776.8
201.51	782.7
201.986	776.2
202.461	779.3
202.937	779.4
203.412	780.3
203.887	780
204.363	782.4
204.838	775
205.313	778.1
205.789	779.7
206.264	778.5
206.739	781.9
207.214	777.5
207.689	775.3
208.165	778.1
208.64	776.5
209.115	777
209.59	780.1
210.065	775.3
210.54	775.8
211.015	778.6
211.49	774.7
211.965	777.6
212.44	780.6
212.914	778.7
213.389	774.8
213.864	773.6
214.339	774.6
214.814	774.8
215.288	770.8
215.763	778.6
216.238	779.5
216.712	776.7
217.187	779
217.662	780.7
218.136	776.7
218.611	780.1
219.085	771.3
219.56	779.8
220.034	780.4
220.509	776.8
220.983	775.2
221.458	776.3
221.932	780
222.406	778.3
222.881	782.5
223.355	778.8
223.829	775.6
224.303	778.5
224.778	780
225.252	781.2
225.726	780.7
226.2	776.7
226.674	773.2
227.148	780.9
227.622	777.4
228.096	774.5
228.57	782.9
229.044	776.3
229.518	776.9
229.992	777.1
230.466	789
230.94	779
231.414	775.8
231.888	778.8
232.361	779.3
232.835	783.7
233.309	778.8
233.783	776.3
234.256	777.8
234.73	781
235.204	783.4
235.677	781.1
236.151	777
236.624	779.1
237.098	777.6
237.571	782.5
238.045	781.5
238.518	778.7
238.992	782.9
239.465	781.6
239.939	776
240.412	777.5
240.885	774.4
241.359	778.2
241.832	778.5
242.305	779.6
242.778	775.9
243.251	778.3
243.725	777.8
244.198	779
244.671	775.4
245.144	782.2
245.617	784.1
246.09	771.7
246.563	777.6
247.036	778.1
247.509	778.7
247.982	781.1
248.455	776.7
248.928	783.2
249.4	778.1
249.873	768.5
250.346	777.9
250.819	784.6
251.292	782
251.764	775.2
252.237	780.9
252.71	780.5
253.182	781.8
253.655	777.6
254.127	780.3
254.6	778.5
255.073	784.2
255.545	779.9
256.018	777.9
256.49	781.1
256.962	781.9
257.435	774
257.907	775.6
258.379	774.7
258.852	782.2
259.324	781.1
259.796	776.7
260.269	780.6
260.741	777.6
261.213	776.1
261.685	780.5
262.157	782.1
262.629	781.9
263.101	780.4
263.574	779.3
264.046	779.1
264.518	774.1
264.99	776.6
265.461	776.4
265.933	779.3
266.405	774.9
266.877	779.7
267.349	775.9
267.821	781.9
268.293	777.6
268.764	774.2
269.236	781.4
269.708	783.6
270.18	779.8
270.651	784.1
271.123	777.6
271.594	780.2
272.066	783.8
272.538	778.3
273.009	777.4
273.481	777.5
273.952	772.2
274.423	777.8
274.895	781.1
275.366	775
275.838	774.5
276.309	773
276.78	777.2
277.252	783.2
277.723	776.8
278.194	778.2
278.665	780.8
279.136	779.6
279.608	775.3
280.079	779.2
280.55	778.2
281.021	779.2
281.492	778.8
281.963	779.8
282.434	777.8
282.905	779.1
283.376	782.6
283.847	778.6
284.318	778.9
284.789	778.1
285.259	777.9
285.73	781.2
286.201	782.3
286.672	772.4
287.143	778.4
287.613	774.5
288.084	781.8
288.555	780.4
289.025	778.5
289.496	780.2
289.966	781.4
290.437	783.6
290.907	777.2
291.378	784.3
291.848	777.1
292.319	777.5
292.789	777
293.26	786.4
293.73	781.4
294.2	778.2
294.671	778.9
295.141	776.1
295.611	775.8
296.081	777.4
296.552	784.9
297.022	783.9
297.492	785
297.962	782.6
298.432	778.1
298.902	778.1
299.372	779.5
299.842	780.4
300.312	780.1
300.782	783.9
301.252	783.3
301.722	775.5
302.192	779.9
302.662	776.4
303.132	778.2
303.602	780.2
304.071	779.5
304.541	782.2
305.011	781
305.481	776.7
305.95	780.6
306.42	780.4
306.889	776
307.359	778.2
307.829	778.2
308.298	779.5
308.768	779.8
309.237	778.4
309.707	782.6
310.176	779.3
310.645	775.3
311.115	780.1
311.584	784.6
312.054	786.6
312.523	779.3
312.992	779.9
313.461	780.9
313.931	776.7
314.4	778.7
314.869	783
315.338	777.8
315.807	775.2
316.276	783.1
316.745	777.7
317.214	786.4
317.683	781.8
318.152	776.7
318.621	780.4
319.09	781.9
319.559	776.5
320.028	778.1
320.497	780.1
320.966	777.3
321.435	772.8
321.903	777
322.372	781.7
322.841	784.3
323.31	777.4
323.778	784.3
324.247	780.5
324.715	777.5
325.184	781.2
325.653	779.2
326.121	781.9
326.59	778.5
327.058	777.4
327.527	783.8
327.995	782.3
328.463	776.7
328.932	782
329.4	777.6
329.868	780.3
330.337	779
330.805	773.6
331.273	780.4
331.741	779.4
332.21	781.1
332.678	782
333.146	780
333.614	781.9
334.082	781.4
334.55	773.3
335.018	779.6
335.486	782.2
335.954	777.2
336.422	788.7
336.89	780.5
337.358	780.5
337.826	780
338.294	779.2
338.762	781.9
339.229	776.7
339.697	782.1
340.165	780.7
340.633	779
341.1	782.6
341.568	779.8
342.035	774.2
342.503	778.4
342.971	784.6
343.438	778.1
343.906	778
344.373	780.6
344.841	781.4
345.308	779.6
345.776	782
346.243	779.4
346.71	781.2
347.178	780.2
347.645	781
348.112	780.7
348.58	778.3
349.047	783.1
349.514	778.8
349.981	780.9
350.448	781.5
350.915	782.4
351.383	783.4
351.85	779.9
352.317	782.6
352.784	781.2
353.251	778
353.718	779
354.185	785.7
354.651	777.5
355.118	781.2
355.585	780.5
356.052	776.2
356.519	781.1
356.986	780.6
357.452	782.3
357.919	784
358.386	781.1
358.853	782.9
359.319	780.6
359.786	776.7
360.252	783.1
360.719	782.9
361.185	784.9
361.652	780.2
362.118	784
362.585	783.7
363.051	777.6
363.518	777.9
363.984	778.4
364.451	779.5
364.917	776.3
365.383	779.2
365.849	783.5
366.316	779.5
366.782	781.4
367.248	775.1
367.714	775.8
368.18	780.1
368.647	783.2
369.113	779.9
369.579	778.6
370.045	782.2
370.511	783.7
370.977	777.6
371.443	781.7
371.909	780.8
372.374	781.1
372.84	782.1
373.306	784.4
373.772	781
374.238	779.1
374.704	778.8
375.169	780.8
375.635	782
376.101	773.3
376.566	777.9
377.032	780.7
377.498	774.9
377.963	778.6
378.429	780.2
378.894	783.7
379.36	781.1
379.825	774.8
380.291	784.5
380.756	784.6
381.222	778.3
381.687	779.9
382.152	775.1
382.618	782.4
383.083	777.3
383.548	775
384.013	777.9
384.479	782.4
384.944	781.4
385.409	772.1
385.874	782.3
386.339	782
386.804	779.7
387.269	781.6
387.734	781.9
388.199	782.6
388.664	779.3
389.129	779.7
389.594	782.3
390.059	782.8
390.524	781
390.989	779
391.453	786
391.918	776.3
392.383	777.7
392.848	778.2
393.312	777.9
393.777	781.9
394.242	778.1
394.706	778.4
395.171	784.1
395.635	777.7
396.1	775.9
396.565	785.3
397.029	776.7
397.493	778.8
397.958	781.2
398.422	785.8
398.887	786
399.351	782.9
399.815	778.6
400.28	778.8
400.744	782
401.208	781.3
401.672	781
402.137	781.2
402.601	781.4
403.065	776.8
403.529	777.5
403.993	783.8
404.457	785.6
404.921	781.3
405.385	782.4
405.849	780
406.313	780.2
406.777	784.9
407.241	782.1
407.705	783.5
408.169	778
408.632	777.4
409.096	781.2
409.56	779.7
410.024	783
410.487	783.7
410.951	780.5
411.415	780.3
411.878	784.7
412.342	779.7
412.806	785.1
413.269	782.8
413.733	780.8
414.196	782.8
414.66	780.5
415.123	785.2
415.587	779.3
416.05	781.1
416.513	779.9
416.977	781.9
417.44	778.9
417.903	782.2
418.366	782.5
418.83	785.5
419.293	780.8
419.756	777
420.219	776.8
420.682	778.2
421.145	778.2
421.608	783.8
422.072	785.5
422.535	785
422.998	781.6
423.46	780.2
423.923	784.3
424.386	779.8
424.849	779.2
425.312	783.6
425.775	781.7
426.238	783.4
426.7	779.9
427.163	784
427.626	786.1
428.089	781.4
428.551	778.8
429.014	783.9
429.477	786
429.939	782.3
430.402	781.6
430.864	779.3
431.327	781.9
431.789	777.8
432.252	778.9
432.714	784
433.176	783.5
433.639	781.7
434.101	782.5
434.563	784
435.026	789.2
435.488	785.5
435.95	784.2
436.412	777.7
436.875	781.5
437.337	781
437.799	783.4
438.261	787.7
438.723	785.2
439.185	781.8
439.647	785.1
440.109	785.4
440.571	787.6
441.033	784.2
441.495	779.9
441.957	790.8
442.419	783.1
442.881	787.2
443.342	787.3
443.804	788.6
444.266	787.8
444.728	785.3
445.189	790
445.651	784.9
446.113	784.4
446.574	790.3
447.036	792.7
447.497	786.7
447.959	792.6
448.421	788.7
448.882	794.1
449.343	792.7
449.805	792.6
450.266	794.7
450.728	799
451.189	803
451.65	800.7
452.112	802.8
452.573	803.3
453.034	805.8
453.495	807.8
453.957	812.9
454.418	818.3
454.879	824.2
455.34	822.8
455.801	833
456.262	856.8
456.723	867.3
457.184	885.5
457.645	911.1
458.106	938.7
458.567	977.9
459.028	1021.7
459.489	1077.3
459.95	1146.6
460.41	1220.4
460.871	1320.4
461.332	1436.4
461.793	1598.2
462.253	1767.7
462.714	1980.1
463.175	2223.8
463.635	2500
464.096	2835.7
464.556	3254.7
465.017	3640.7
465.478	4015.5
465.938	4487.7
466.398	5008
466.859	5582.9
467.319	6287.1
467.78	7159.6
468.24	7639.7
468.7	8263.5
469.161	8849.8
469.621	9545
470.081	10383.6
470.541	11036.3
471.002	11914.8
471.462	12449.1
471.922	12901.4
472.382	13106.3
472.842	13526.5
473.302	13748.4
473.762	13705
474.222	13765.2
474.682	14106.5
475.142	14089.1
475.602	14191.5
476.062	14375.7
476.522	14439.9
476.982	14320.4
477.442	13684.4
477.901	12799.2
478.361	12465.5
478.821	12107.8
479.281	11274
479.74	10432.7
480.2	9993.7
480.659	9219.6
481.119	8542.7
481.579	7512.2
482.038	6065.7
482.498	4340.6
482.957	2630.1
483.417	1574.6
483.876	1105.3
484.336	942.5
484.795	887.4
485.254	862.4
485.714	844.5
486.173	845.8
486.632	844.8
487.091	843.1
487.551	839.2
488.01	838.4
488.469	842.2
488.928	836.6
489.387	827.1
489.846	833.5
490.305	835.2
490.764	831.6
491.223	829.2
491.682	826
492.141	824.2
492.6	823.5
493.059	817.8
493.518	823.8
493.977	819.5
494.436	818.4
494.895	814.5
495.353	813.6
495.812	816.4
496.271	807.3
496.729	811
497.188	811.5
497.647	814.7
498.105	804.9
498.564	804.2
499.022	801
499.481	797
499.939	795.7
500.398	798.7
500.856	795.8
501.315	795.2
501.773	788.2
502.232	792.6
502.69	789.2
503.148	788.1
503.606	786.7
504.065	782.2
504.523	780.2
504.981	786
505.439	784.8
505.897	786.5
506.356	783.9
506.814	783.1
507.272	782.6
507.73	778.2
508.188	780.9
508.646	783
509.104	778
509.562	777.6
510.02	782.3
510.477	782.7
510.935	780.7
511.393	780.3
511.851	782
512.309	780.1
512.766	782.7
513.224	780.9
513.682	783.5
514.139	776.1
514.597	783
515.055	780.6
515.512	783.3
515.97	780.4
516.427	775.1
516.885	780.8
517.342	780.5
517.8	777.6
518.257	781.3
518.714	781.4
519.172	781.7
519.629	774.1
520.086	778.3
520.544	782.8
521.001	779.2
521.458	779.3
521.915	778.9
522.373	777.1
522.83	776.5
523.287	778.1
523.744	780.8
524.201	779.7
524.658	782.9
525.115	775.8
525.572	779.1
526.029	783.8
526.486	777.4
526.943	775.9
527.4	777.5
527.857	775.1
528.313	777.1
528.77	778.3
529.227	777.8
529.684	779.3
530.14	781
530.597	777.3
531.054	776.7
531.51	778.6
531.967	777.8
532.423	781.7
532.88	780.6
533.337	778.1
533.793	778.7
534.25	782.1
534.706	784.3
535.162	779.6
535.619	780.4
536.075	777.8
536.531	784.8
536.988	781.5
537.444	772.6
537.9	775.1
538.356	781.3
538.813	779.2
539.269	782.3
539.725	778.7
540.181	784.3
540.637	780.4
541.093	776.8
541.549	781
542.005	778.3
542.461	776.6
542.917	777.5
543.373	778.5
543.829	777
544.285	777.1
544.741	781.2
545.197	773.2
545.652	779.8
546.108	780.2
546.564	777.5
547.02	778.1
547.475	778.8
547.931	778.9
548.387	778.4
548.842	779.1
549.298	782.3
549.753	777.2
550.209	782.5
550.664	779.2
551.12	776.9
551.575	776.3
552.031	776.7
552.486	783.2
552.941	784
553.397	777.4
553.852	779.6
554.307	773.2
554.762	774.7
555.218	778
555.673	777.7
556.128	781
556.583	779.8
557.038	777.4
557.493	781.8
557.948	781.5
558.403	778.7
558.858	773.2
559.313	775.3
559.768	780.5
560.223	783.7
560.678	777.2
561.133	777.1
561.588	774.8
562.043	778
562.497	780.7
562.952	776.4
563.407	774.9
563.862	781.8
564.316	773.6
564.771	777.4
565.226	778.7
565.68	776.6
566.135	780.1
566.589	776.6
567.044	780
567.498	773.5
567.953	775.4
568.407	776.4
568.862	776.5
569.316	777.3
569.77	778.5
570.225	777
570.679	775.9
571.133	777.1
571.587	773.5
572.042	779
572.496	774.8
572.95	779.3
573.404	780.8
573.858	777.3
574.312	775.6
574.766	777.6
575.22	774.8
575.674	778.2
576.128	777.2
576.582	771.6
577.036	777.6
577.49	777.2
577.944	771.7
578.398	777.8
578.852	782.4
579.305	777.8
579.759	777.1
580.213	776.5
580.666	771.8
581.12	773.5
581.574	774.5
582.027	773
582.481	781.2
582.935	775.3
583.388	777.6
583.842	774.6
584.295	778.4
584.748	775.8
585.202	776
585.655	779.1
586.109	779.7
586.562	782
587.015	777.7
587.469	779.1
587.922	781.9
588.375	779.8
588.828	774.1
589.281	778.8
589.735	778.1
590.188	782.1
590.641	774.7
591.094	774
591.547	776.2
592	774.6
592.453	775.9
592.906	768.7
593.359	776
593.812	778.1
594.265	779.3
594.717	779
595.17	783.1
595.623	777.9
596.076	779.1
596.529	773.4
596.981	779.6
597.434	776.3
597.887	779.8
598.339	776.8
598.792	775.1
599.245	775.3
599.697	772.7
600.15	777
600.602	773.7
601.055	778.4
601.507	774.7
601.959	774.7
602.412	774.4
602.864	775.6
603.316	774.1
603.769	779.2
604.221	775.3
604.673	774.3
605.126	774.8
605.578	774.6
606.03	778.6
606.482	779.2
606.934	777.5
607.386	775.5
607.838	777.8
608.29	773.5
608.742	774.7
609.194	777.4
609.646	775.9
610.098	776.5
610.55	774.9
611.002	779.3
611.454	778.1
611.906	777.6
612.357	778.7
612.809	776.1
613.261	777.1
613.713	777.5
614.164	779.1
614.616	779.9
615.068	779.1
615.519	777.8
615.971	777.6
616.422	776.7
616.874	773.5
617.325	776.9
617.777	778.8
618.228	774.1
618.68	777.3
619.131	774.5
619.582	778.1
620.034	778.9
620.485	774.7
620.936	778.4
621.387	776.1
621.839	775.9
622.29	777.4
622.741	779.2
623.192	778.2
623.643	779.1
624.094	773.4
624.545	775.1
624.996	775
625.447	775.8
625.898	775.3
626.349	777
626.8	776.4
627.251	779
627.702	772
628.153	782.1
628.604	777
629.054	773.3
629.505	774
629.956	778.6
630.406	779.2
630.857	779.9
631.308	773.7
631.758	778.1
632.209	777.2
632.66	774
633.11	776.1
633.561	776.8
634.011	770.7
634.461	780.6
634.912	774.2
635.362	776.8
635.813	782.1
636.263	772.3
636.713	779.9
637.164	782.7
637.614	779.4
638.064	780.3
638.514	778.5
638.964	778.6
639.415	780
639.865	773.6
640.315	773.1
640.765	780.9
641.215	776.2
641.665	779.3
642.115	776.2
642.565	778.8
643.015	779.6
643.465	774.9
643.915	778.2
644.364	781.8
644.814	778
645.264	774.7
645.714	776.9
646.163	778
646.613	780.1
647.063	773.2
647.513	775.8
647.962	781
648.412	776.3
648.861	778.7
649.311	779.4
649.76	776.3
650.21	776
650.659	776.7
651.109	777.4
651.558	777
652.008	768.6
652.457	770.8
652.906	773.7
653.356	775.9
653.805	780.1
654.254	776.5
654.703	779.3
655.152	773.9
655.602	774.9
656.051	776.2
656.5	779.7
656.949	774.3
657.398	778.1
657.847	777.4
658.296	776
658.745	778.6
659.194	775.4
659.643	778.3
660.092	779.5
660.541	778.5
660.989	777.4
661.438	779.1
661.887	779.9
662.336	777.8
662.784	774.6
663.233	775.5
663.682	780.6
664.13	772.9
664.579	777.2
665.028	782.9
665.476	777.7
665.925	775.1
666.373	774.2
666.822	777.6
667.27	779.8
667.719	777.7
668.167	776.4
668.615	776.8
669.064	776.5
669.512	782.1
669.96	773.9
670.408	779.9
670.857	778.7
671.305	771.4
671.753	781.7
672.201	777.5
672.649	778.5
673.097	778.8
673.545	775.1
673.993	780.6
674.441	774.5
674.889	774.2
675.337	777.3
675.785	780.3
676.233	774.7
676.681	776.2
677.129	776
677.577	776.3
678.025	777.5
678.472	773
678.92	783.2
679.368	778.8
679.815	775.4
680.263	776.7
680.711	777.6
681.158	778.5
681.606	783
682.053	778
682.501	780.6
682.948	780
683.396	778.3
683.843	779.2
684.291	775.6
684.738	780.7
685.185	778.7
685.633	776.2
686.08	781.1
686.527	782.2
686.974	778.7
687.422	780.5
687.869	782.4
688.316	779.4
688.763	778.5
689.21	776.9
689.657	776.2
690.104	776.6
690.551	771.5
690.998	776.5
691.445	775.7
691.892	774.3
692.339	774.7
692.786	776.9
693.233	775
693.68	776.5
694.127	779.6
694.573	780.9
695.02	781.5
695.467	782.6
695.913	775.9
696.36	778.9
696.807	779.2
697.253	774.5
697.7	770.9
698.146	777.8
698.593	779.5
699.039	776.5
699.486	777.3
699.932	778
700.379	777.9
700.825	776.5
701.272	776.4
701.718	780
702.164	774.9
702.61	777.9
703.057	777.7
703.503	780.3
703.949	774.4
704.395	777.9
704.841	773.8
705.287	783.1
705.734	775.5
706.18	772.5
706.626	781.3
707.072	780.5
707.518	781.2
707.964	778.8
708.409	779.2
708.855	778.5
709.301	780.6
709.747	777.9
710.193	776.5
710.639	783.2
711.084	774
711.53	782.6
711.976	781
712.421	778.5
712.867	781.5
713.313	775.8
713.758	779
714.204	781.6
714.649	779.5
715.095	775.3
715.54	778.1
715.986	779.2
716.431	776.2
716.877	770.1
717.322	773.7
717.767	773.7
718.213	775.3
718.658	777.9
719.103	778
719.548	779.4
719.994	776
720.439	779.3
720.884	781.2
721.329	775.8
721.774	775.6
722.219	782
722.664	776.6
723.109	776
723.554	775.6
723.999	780.4
724.444	780.2
724.889	773.6
725.334	775.8
725.779	780.7
726.223	777.3
726.668	774.7
727.113	780.4
727.558	776.2
728.002	778.9
728.447	773
728.892	773.2
729.336	777.7
729.781	779.5
730.225	778.7
730.67	778.6
731.114	781.1
731.559	774.5
732.003	778
732.448	779.2
732.892	775.1
733.337	782.1
733.781	771.7
734.225	782.6
734.67	776.7
735.114	779.7
735.558	779
736.002	778.7
736.446	781.9
736.891	774
737.335	775.5
737.779	777.3
738.223	775.4
738.667	776.4
739.111	782.9
739.555	780.9
739.999	783
740.443	776.8
740.887	776.8
741.33	777.3
741.774	776.5
742.218	774.1
742.662	777.5
743.106	780
743.549	777.9
743.993	778.8
744.437	776.3
744.88	778.8
745.324	782.6
745.768	773.4
746.211	781.6
746.655	777.2
747.098	777.1
747.542	778.7
747.985	775.3
748.429	776.4
748.872	779.1
749.315	773.9
749.759	779.1
750.202	779.7
750.645	775.2
751.089	778.9
751.532	776.1
751.975	777.9
752.418	781.6
752.861	774.6
753.305	782.3
753.748	775.4
754.191	778.1
754.634	777.3
755.077	780.5
755.52	775.8
755.963	774.8
756.406	774.2
756.849	784.1
757.291	779.9
757.734	777.9
758.177	779
758.62	772.9
759.063	776.2
759.505	778.6
759.948	775
760.391	775.4
760.833	779.3
761.276	773.9
761.719	778
762.161	781.1
762.604	779.3
763.046	775.2
763.489	776.1
763.931	779.9
764.374	778.3
764.816	775.3
765.258	779.2
765.701	775.4
766.143	775.1
766.585	774
767.028	776.7
767.47	779.5
767.912	776.6
768.354	773.3
768.796	780.4
769.238	778.9
769.681	778.5
770.123	779.8
770.565	775.2
771.007	776.8
771.449	777.3
771.891	774.3
772.333	777.5
772.774	781
773.216	776.1
773.658	779.1
774.1	780
774.542	777
774.984	780.8
775.425	778.9
775.867	779
776.309	778.7
776.75	776.6
777.192	773.5
777.634	775.7
778.075	777.9
778.517	779.9
778.958	776.8
779.4	779.9
779.841	780.6
780.283	776.2
780.724	779.7
781.165	776.7
781.607	774.3
782.048	775.7
782.489	775.8
782.931	779.6
783.372	777.9
783.813	776
784.254	778.5
784.695	779.3
785.136	777.7
785.578	779.9
786.019	778.6
786.46	776.1
786.901	776.9
787.342	775.7
787.783	780.8
788.224	780.2
788.664	775.7
789.105	779.1
789.546	780.6
789.987	776.3
790.428	778.1
790.869	777.1
791.309	780.9
791.75	783
792.191	776.3
792.631	781.7
793.072	774.8
793.513	775.8
793.953	774.7
794.394	774.6
794.834	779.9
795.275	782.1
795.715	781.3
796.156	777.1
796.596	780.5
797.036	782.5
797.477	774
797.917	774.2
798.357	777
798.798	776.9
799.238	776.4
799.678	779.7
800.118	779.3
800.558	776.9
800.998	773.3
801.439	776.9
801.879	780.5
802.319	781.9
802.759	780.4
803.199	783.5
803.639	783.8
804.079	776.3
804.518	776.9
804.958	779
805.398	780.2
805.838	776.1
806.278	774.9
806.718	776.4
807.157	778.6
807.597	770.8
808.037	780.2
808.476	773.2
808.916	773.8
809.356	776.2
809.795	777.4
810.235	781.9
810.674	777.3
811.114	772.8
811.553	780.5
811.993	781.7
812.432	777.2
812.871	778.6
813.311	779.8
813.75	779.5
814.189	782.3
814.629	777
815.068	780.1
815.507	783
815.946	773.3
816.385	778
816.824	777.8
817.263	779.2
817.703	780
818.142	777.3
818.581	780.9
819.02	785.6
819.459	774.4
819.897	779.2
820.336	781.9
820.775	779.3
821.214	779.9
821.653	770.4
822.092	776.1
822.53	772.8
822.969	774
823.408	782.2
823.847	773.6
824.285	783.9
824.724	779.3
825.162	774.7
825.601	777.8
826.04	774.7
826.478	774.8
826.916	780.3
827.355	780.5
827.793	776.1
828.232	774.2
828.67	779.7
829.108	778.9
829.547	783.6
829.985	775.3
830.423	782.4
830.862	777.5
831.3	775.7
831.738	775
832.176	781.2
832.614	781.4
833.052	777.5
833.49	777.9
833.928	776.4
834.366	779.1
834.804	774
835.242	774.5
835.68	781.7
836.118	774.3
836.556	777.5
836.994	773.4
837.432	778.3
837.869	780.4
838.307	774.4
838.745	776.6
839.183	778.2
839.62	782.2
840.058	779.8
840.496	775
840.933	780.6
841.371	782.3
841.808	778.5
842.246	780.1
842.683	777.7
843.121	777.7
843.558	780.2
843.995	776.3
844.433	778.2
844.87	775.5
845.307	772.8
845.745	779
846.182	776.8
846.619	774.3
847.056	777.6
847.494	776
847.931	775.9
848.368	776
848.805	771.2
849.242	780.1
849.679	776.7
850.116	775.2
850.553	779.5
850.99	779.5
851.427	775.8
851.864	775.9
852.301	778.5
852.737	778.2
853.174	781.3
853.611	774.9
854.048	776
854.484	782
854.921	779
855.358	779.1
855.794	775.7
856.231	776.5
856.668	777.4
857.104	775.1
857.541	779.1
857.977	782
858.414	782.2
858.85	779.4
859.286	779.8
859.723	779.9
860.159	778.8
860.596	772.6
861.032	776.4
861.468	782.2
861.904	773.3
862.341	783.6
862.777	778.1
863.213	778.2
863.649	780.4
864.085	780.1
864.521	779.9
864.957	773.4
865.393	774.2
865.829	774.3
866.265	774.7
866.701	778.8
867.137	777.1
867.573	775.3
868.009	780.6
868.445	778.7
868.88	773.9
869.316	777.9
869.752	782.5
870.188	777.9
870.623	773.8
871.059	772.1
871.495	777
871.93	778.1
872.366	778.4
872.801	777.2
873.237	780.2
873.672	776.3
874.108	776.6
874.543	776.7
874.979	777.8
875.414	775.7
875.849	773.9
876.285	780.2
876.72	780.1
877.155	774.5
877.59	774.2
878.026	773.9
878.461	777.4
878.896	773
879.331	776.4
879.766	777.2
880.201	774.1
880.636	773.4
881.071	782
881.506	771.4
881.941	778.6
882.376	782.1
882.811	780
883.246	775.8
883.681	777.7
884.116	771.1
884.55	776.1
884.985	778.2
885.42	773.7
885.855	778.8
886.289	773.5
886.724	782.1
887.159	777.3
887.593	774.4
888.028	777.6
888.462	775.7
888.897	773.2
889.331	776.3
889.766	773.3
890.2	777.7
890.634	778.2
891.069	773.2
891.503	780.2
891.937	780.6
892.372	780.7
892.806	775.6
893.24	772.9
893.674	779.1
894.109	773.4
894.543	769.8
894.977	776.7
895.411	773.9
895.845	773
896.279	782
896.713	775.1
897.147	778.7
897.581	777.5
898.015	779.5
898.449	776.2
898.883	776.7
899.316	775
899.75	781.2
900.184	778.3
900.618	776.7
901.051	776.5
901.485	776.7
901.919	775.7
902.352	779.6
902.786	776.8
903.22	777.1
903.653	777.1
904.087	773.2
904.52	777
904.954	777.2
905.387	775.9
905.82	777.6
906.254	774.6
906.687	777.8
907.121	780.7
907.554	776.7
907.987	773.3
908.42	772.4
908.854	778.3
909.287	776.2
909.72	773.3
910.153	774.2
910.586	778
911.019	770.7
911.452	773.4
911.885	773.4
912.318	775.9
912.751	779.4
913.184	767.4
913.617	775.4
914.05	779
914.483	775.8
914.916	774.2
915.348	776.6
915.781	780.1
916.214	780.5
916.647	774.6
917.079	774.8
917.512	777.3
917.944	776.5
918.377	773.8
918.81	777.1
919.242	775.3
919.675	776.6
920.107	775.3
920.54	776.4
920.972	774.5
921.404	775.1
921.837	778.6
922.269	778.2
922.701	779.5
923.134	775.1
923.566	775.7
923.998	780.2
924.43	777.5
924.863	778.3
925.295	777.6
925.727	779.3
926.159	777.4
926.591	779.3
927.023	773.8
927.455	780
927.887	774.7
928.319	769
928.751	777.8
929.183	773.6
929.615	775.7
930.046	775.9
930.478	773.4
930.91	774.1
931.342	773
931.773	778.2
932.205	776.9
932.637	776.1
933.068	772.4
933.5	777.2
933.932	777.5
934.363	770.8
934.795	773.3
935.226	778.1
935.658	778.7
936.089	775.5
936.521	772.8
936.952	780.9
937.383	779.4
937.815	777.3
938.246	780.1
938.677	774.2
939.108	778.3
939.54	776
939.971	775.8
940.402	776.5
940.833	776.7
941.264	777.5
941.695	783.2
942.126	774
942.557	772.4
942.988	777.9
943.419	776.4
943.85	776.5
944.281	780.5
944.712	779.9
945.143	775.5
945.574	777.2
946.004	779.8
946.435	776.9
946.866	771.5
947.297	777.2
947.727	777.1
948.158	777.4
948.588	777.7
949.019	779.1
949.45	775.7
949.88	775.9
950.311	774.4
950.741	777
951.172	775.8
951.602	772
952.032	773.5
952.463	777.9
952.893	777.4
953.323	778.7
953.754	773.1
954.184	779.1
954.614	775.6
955.044	773.1
955.475	776
955.905	775.9
956.335	777.8
956.765	773.4
957.195	779.1
957.625	773.4
958.055	779
958.485	775.6
958.915	777.5
959.345	779.6
959.775	778
960.204	778.9
960.634	778.9
961.064	777
961.494	777.3
961.924	772
962.353	777.8
962.783	780.9
963.213	778.2
963.642	781.5
964.072	782.7
964.501	775.4
964.931	779.7
965.361	780.5
965.79	776.4
966.219	773.7
966.649	773.9
967.078	778.7
967.508	779.7
967.937	775.3
968.366	780.5
968.796	772.8
969.225	780.5
969.654	773.8
970.083	771.8
970.513	773.2
970.942	780.9
971.371	779.5
971.8	774.4
972.229	780.7
972.658	781.5
973.087	771.5
973.516	775
973.945	781.2
974.374	781.9
974.803	774.8
975.232	781.1
975.66	777.6
976.089	774.5
976.518	774.1
976.947	774.4
977.375	774.4
977.804	777.9
978.233	773.9
978.661	778.7
979.09	779.4
979.519	774.6
979.947	773.7
980.376	773.5
980.804	778
981.233	778.9
981.661	774
982.09	781.5
982.518	779.1
982.946	772.3
983.375	777.1
983.803	777.1
984.231	775.3
984.659	774.8
985.088	775.2
985.516	779.4
985.944	776.6
986.372	774.6
986.8	779.4
987.228	774.1
987.656	774.8
988.084	779
988.512	773.7
988.94	776.6
989.368	781.4
989.796	775.3
990.224	777.8
990.652	776.7
991.08	776.5
991.507	778.4
991.935	772.3
992.363	780.1
992.791	780.9
993.218	777.6
993.646	776.4
994.074	775
994.501	775.2
994.929	775.1
995.356	775.3
995.784	775.6
996.211	774.9
996.639	773.5
997.066	778
997.493	780.3
997.921	774.9
998.348	770.5
998.775	775.7
999.203	778.9
999.63	776.7
1000.057	774.4
1000.484	779.2
1000.912	779.9
1001.339	772.9
1001.766	778.8
1002.193	774.3
1002.62	779.3
1003.047	774.7
1003.474	772.4
1003.901	780.8
1004.328	777.8
1004.755	772.5
1005.182	778.6
1005.608	773.8
1006.035	771.4
1006.462	772.6
1006.889	780.6
1007.316	783.4
1007.742	777.8
1008.169	779.1
1008.596	772
1009.022	776.3
1009.449	775.9
1009.875	776.1
1010.302	773.7
1010.728	778.8
1011.155	772
1011.581	775.8
1012.008	774.9
1012.434	772.9
1012.861	773.7
1013.287	776.9
1013.713	775.4
1014.139	775.1
1014.566	778.3
1014.992	776.1
1015.418	776.7
1015.844	781.8
1016.27	775.2
1016.697	775.7
1017.123	779.9
1017.549	772.7
1017.975	767.7
1018.401	777.4
1018.827	782.1
1019.253	780
1019.679	777.4
1020.104	775
1020.53	780.5
1020.956	776
1021.382	776.7
1021.808	771.2
1022.233	777.2
1022.659	773.3
1023.085	773.3
1023.51	779.2
1023.936	778.3
1024.362	775.9
1024.787	777.9
1025.213	774.4
1025.638	779.1
1026.064	778.6
1026.489	776.6
1026.915	779.9
1027.34	780.4
1027.765	775.6
1028.191	778.3
1028.616	779.8
1029.041	778.8
1029.467	777.5
1029.892	772.3
1030.317	779
1030.742	775.5
1031.167	773.5
1031.592	775.8
1032.018	777.6
1032.443	776.1
1032.868	776.5
1033.293	769.3
1033.718	780.8
1034.143	780.6
1034.567	773.6
1034.992	778.3
1035.417	777.9
1035.842	777.8
1036.267	775.2
1036.692	771.6
1037.116	777.1
1037.541	780.9
1037.966	776.8
1038.39	777.6
1038.815	775.8
1039.24	776.4
1039.664	774.5
1040.089	772.6
1040.513	775.2
1040.938	775.1
1041.362	775.8
1041.787	778.3
1042.211	785
1042.635	776.1
1043.06	780.2
1043.484	775.3
1043.908	779.7
1044.333	777.4
1044.757	772.8
1045.181	777.7
1045.605	780.9
1046.029	772.3
1046.454	771.1
1046.878	772.5
1047.302	775.5
1047.726	775.7
1048.15	771.6
1048.574	779
1048.998	779.4
1049.422	777.6
1049.845	777.7
1050.269	783.6
1050.693	777
1051.117	776
1051.541	778
1051.964	774.3
1052.388	780.7
1052.812	772.8
1053.235	777
1053.659	776
1054.083	771.6
1054.506	774.6
1054.93	773.4
1055.353	777.8
1055.777	773.1
1056.2	778
1056.624	779.1
1057.047	775.1
1057.471	773.7
1057.894	775
1058.317	776.5
1058.74	781
1059.164	775.2
1059.587	774.6
1060.01	778.5
1060.433	778.2
1060.856	779
1061.28	776.2
1061.703	780.1
1062.126	781.2
1062.549	777.1
1062.972	775.1
1063.395	781.3
1063.818	779.6
1064.241	776.2
1064.663	771.7
1065.086	776.4
1065.509	775.6
1065.932	778.7
1066.355	772.8
1066.777	779.5
1067.2	775.5
1067.623	775.8
1068.046	775.5
1068.468	779.8
1068.891	774.2
1069.313	774.2
1069.736	776.4
1070.158	782.4
1070.581	777.7
1071.003	771.4
1071.426	774.5
1071.848	783.6
1072.271	776.7
1072.693	775.6
1073.115	781.4
1073.538	780
1073.96	774.9
1074.382	776.2
1074.804	774.9
1075.226	781
1075.649	775.4
1076.071	775.5
1076.493	776.1
1076.915	780.2
1077.337	776
1077.759	776.1
1078.181	778.7
1078.603	776.1
1079.025	773
1079.447	773.2
1079.868	768.1
1080.29	777.4
1080.712	774.4
1081.134	775.6
1081.556	777.7
1081.977	778.5
1082.399	776.6
1082.821	778.4
1083.242	781.8
1083.664	773.2
1084.085	773.9
1084.507	772.4
1084.928	778.8
1085.35	777.3
1085.771	776.3
1086.193	776.5
1086.614	781.6
1087.036	772.9
1087.457	769.9
1087.878	773
1088.3	777.6
1088.721	776.3
1089.142	774.8
1089.563	776.4
1089.984	778
1090.406	776.4
1090.827	775.3
1091.248	776.6
1091.669	777.2
1092.09	775.8
1092.511	772.8
1092.932	782.3
1093.353	773.9
1093.774	778.3
1094.195	773.9
1094.615	772.8
1095.036	780.5
1095.457	778.4
1095.878	773
1096.299	778.2
1096.719	779.5
1097.14	774.6
1097.561	776.9
1097.981	780.9
1098.402	774.6
1098.822	778.5
1099.243	773.6
1099.663	776
1100.084	775.6
1100.504	771
1100.925	771.3
1101.345	780.1
1101.766	774.4
1102.186	777.7
1102.606	774
1103.026	777.5
1103.447	779
1103.867	771.9
1104.287	773.6
1104.707	779.6
