节点UV_HRD08281_00016.txt的数据
Date: Wed Jan 15 10:36:12 CST 2020
User: lab329
Spectrometer: HR+D0828
触发模式: 0
积分时间 (秒): 4.000000E-3
Scans to average: 10
启用暗噪声校正: false
启用非线性校正: false
滑动平均宽度: 0
X轴模式: Wavelengths
Number of Pixels in Spectrum: 2048
>>>>>Begin Spectral Data<<<<<
186.281	775.5
186.758	775.5
187.234	775.5
187.71	783.7
188.187	781.5
188.663	778.2
189.139	785.4
189.615	780.9
190.091	778.5
190.567	778.5
191.043	783.4
191.519	785.5
191.995	777.7
192.471	779.9
192.947	787.7
193.423	784.9
193.899	781.8
194.375	780.1
194.851	774.9
195.327	782.5
195.803	782.1
196.278	779.4
196.754	778.9
197.23	778.9
197.706	782.9
198.181	778.4
198.657	778.5
199.133	780
199.608	780.1
200.084	779.5
200.559	778.8
201.035	777.6
201.51	780.9
201.986	780.1
202.461	777.9
202.937	781.9
203.412	778.9
203.887	780.5
204.363	779.7
204.838	781.4
205.313	777.6
205.789	777.7
206.264	785.6
206.739	782.9
207.214	780.9
207.689	776.6
208.165	784.1
208.64	779.5
209.115	777.5
209.59	781.4
210.065	781.9
210.54	780.7
211.015	775.4
211.49	779
211.965	776.5
212.44	777.4
212.914	779.3
213.389	781.2
213.864	779.9
214.339	778.1
214.814	773
215.288	780.3
215.763	779.6
216.238	782.5
216.712	775.2
217.187	776.5
217.662	781.7
218.136	775.6
218.611	776.4
219.085	776.3
219.56	773.8
220.034	778.4
220.509	778.1
220.983	781.7
221.458	782.6
221.932	783.8
222.406	777.7
222.881	775
223.355	775.4
223.829	774.2
224.303	777.5
224.778	779
225.252	778.4
225.726	775.4
226.2	777.2
226.674	778.2
227.148	778.8
227.622	771.6
228.096	779.5
228.57	779.3
229.044	778.9
229.518	780.1
229.992	779
230.466	783.3
230.94	779.2
231.414	777.6
231.888	780.5
232.361	783.3
232.835	775.9
233.309	783
233.783	784.6
234.256	781.6
234.73	781.5
235.204	780.1
235.677	781.4
236.151	780.3
236.624	780.6
237.098	777.6
237.571	784.2
238.045	780.8
238.518	777.2
238.992	779
239.465	780.4
239.939	784.3
240.412	782
240.885	777.2
241.359	777.8
241.832	778.7
242.305	780.5
242.778	783.2
243.251	782
243.725	780.3
244.198	780.1
244.671	770.8
245.144	776.8
245.617	776.8
246.09	781.1
246.563	780.7
247.036	780.1
247.509	785.2
247.982	778.5
248.455	780.6
248.928	782.5
249.4	782.3
249.873	776.6
250.346	785.7
250.819	781.4
251.292	780.5
251.764	782
252.237	780.5
252.71	784.5
253.182	779
253.655	778.1
254.127	771.8
254.6	780.6
255.073	782.7
255.545	776.9
256.018	779.7
256.49	781.8
256.962	778.2
257.435	776.1
257.907	781.2
258.379	778.1
258.852	778.7
259.324	778.9
259.796	777.6
260.269	780.2
260.741	778.1
261.213	775.2
261.685	782.6
262.157	779.9
262.629	777.7
263.101	780
263.574	782.3
264.046	781.5
264.518	780.5
264.99	778.3
265.461	785.1
265.933	779.6
266.405	781.2
266.877	779.4
267.349	780.4
267.821	784
268.293	780.4
268.764	779.4
269.236	780
269.708	780.9
270.18	778.9
270.651	779.4
271.123	779
271.594	781.4
272.066	779.8
272.538	777.1
273.009	782.3
273.481	778.6
273.952	776.9
274.423	779.6
274.895	778.9
275.366	782.5
275.838	781.1
276.309	782.7
276.78	784.1
277.252	776.8
277.723	775.9
278.194	782.3
278.665	780.1
279.136	779.5
279.608	785.7
280.079	780.3
280.55	784.2
281.021	777.4
281.492	781.9
281.963	783
282.434	777.4
282.905	777.1
283.376	778
283.847	774.6
284.318	785.2
284.789	784.4
285.259	781.6
285.73	784.4
286.201	783.5
286.672	780.3
287.143	780.2
287.613	781.4
288.084	785
288.555	778.5
289.025	781.8
289.496	782.1
289.966	784.3
290.437	778.6
290.907	785.2
291.378	777.7
291.848	779.7
292.319	781
292.789	782.3
293.26	785.6
293.73	781.7
294.2	779.5
294.671	783.5
295.141	779.5
295.611	784.6
296.081	782.6
296.552	782.8
297.022	785.2
297.492	778.4
297.962	776.4
298.432	779.2
298.902	782.6
299.372	780.4
299.842	778.4
300.312	775
300.782	780.8
301.252	781.6
301.722	781
302.192	780.1
302.662	777.8
303.132	781.7
303.602	782.4
304.071	779.2
304.541	782.4
305.011	776.9
305.481	778.6
305.95	782.9
306.42	781.3
306.889	780.4
307.359	776.6
307.829	778.9
308.298	783.2
308.768	781.5
309.237	778.2
309.707	780.8
310.176	783.2
310.645	777.9
311.115	777.7
311.584	782
312.054	776.1
312.523	780.2
312.992	780.5
313.461	784.3
313.931	781.8
314.4	783
314.869	783.5
315.338	781.9
315.807	784.6
316.276	781.2
316.745	781.8
317.214	783.7
317.683	782
318.152	781.1
318.621	785.5
319.09	781.7
319.559	779.2
320.028	780.1
320.497	779
320.966	783.9
321.435	783.4
321.903	778.7
322.372	782.9
322.841	781.3
323.31	780.5
323.778	784
324.247	780.4
324.715	776.9
325.184	782.8
325.653	779
326.121	779.9
326.59	778.3
327.058	776.9
327.527	786.9
327.995	780.5
328.463	782.9
328.932	782.4
329.4	780.4
329.868	783.2
330.337	779.8
330.805	782.6
331.273	782.5
331.741	782.9
332.21	781.6
332.678	787.4
333.146	781.3
333.614	784.6
334.082	784.6
334.55	779.4
335.018	786.9
335.486	779.7
335.954	777
336.422	783.5
336.89	782.6
337.358	785.8
337.826	781
338.294	782.6
338.762	784
339.229	783.5
339.697	785
340.165	781.3
340.633	789.2
341.1	785.5
341.568	778
342.035	777.6
342.503	779.3
342.971	782.2
343.438	782.4
343.906	779.9
344.373	781.6
344.841	779.4
345.308	782.2
345.776	780.6
346.243	784.7
346.71	777.7
347.178	775.2
347.645	786.1
348.112	787.8
348.58	782
349.047	776.7
349.514	779.8
349.981	786.2
350.448	780.7
350.915	777.8
351.383	781.6
351.85	776.3
352.317	779.4
352.784	780.8
353.251	780.8
353.718	777.1
354.185	783.1
354.651	778.2
355.118	784
355.585	783.6
356.052	779.7
356.519	788.6
356.986	786.6
357.452	779
357.919	775.7
358.386	775.9
358.853	782.5
359.319	785
359.786	778.8
360.252	786.2
360.719	781.9
361.185	789.5
361.652	783.6
362.118	781.9
362.585	781.9
363.051	781.5
363.518	783.1
363.984	786.8
364.451	782.4
364.917	781
365.383	781.6
365.849	782.8
366.316	782.6
366.782	785.6
367.248	786.6
367.714	787.3
368.18	784.5
368.647	780.9
369.113	780.6
369.579	783.8
370.045	783.4
370.511	785.4
370.977	784.1
371.443	781.2
371.909	783.9
372.374	785.2
372.84	782.9
373.306	780.4
373.772	782.6
374.238	785
374.704	774.4
375.169	786
375.635	786.8
376.101	780.9
376.566	781.8
377.032	779.2
377.498	781.1
377.963	789.1
378.429	785.8
378.894	785.4
379.36	780
379.825	780.9
380.291	780.9
380.756	780.8
381.222	779.1
381.687	783.6
382.152	781.9
382.618	784.5
383.083	780.3
383.548	779.5
384.013	780.5
384.479	781.9
384.944	782.1
385.409	785.7
385.874	783.1
386.339	785.9
386.804	785.3
387.269	783
387.734	781.4
388.199	783.6
388.664	778.7
389.129	785.3
389.594	784.9
390.059	781.3
390.524	782.7
390.989	787.6
391.453	782.9
391.918	785.1
392.383	786.1
392.848	780
393.312	784.8
393.777	787.4
394.242	785.6
394.706	786.5
395.171	786.5
395.635	782.9
396.1	786.5
396.565	789.6
397.029	791.5
397.493	785.1
397.958	790.3
398.422	790.9
398.887	791.5
399.351	789.4
399.815	793.1
400.28	790.9
400.744	790.8
401.208	786.2
401.672	793.9
402.137	790.7
402.601	792.7
403.065	794.1
403.529	795.7
403.993	797.4
404.457	795.7
404.921	791.2
405.385	802.7
405.849	805.4
406.313	800
406.777	805.9
407.241	807.5
407.705	804.8
408.169	809.1
408.632	809.3
409.096	820.3
409.56	821.5
410.024	827
410.487	831
410.951	839.8
411.415	843.4
411.878	860.6
412.342	876.5
412.806	900.2
413.269	926.1
413.733	981.1
414.196	1053.8
414.66	1133.4
415.123	1259.4
415.587	1420.2
416.05	1639.1
416.513	1909.8
416.977	2226.8
417.44	2624.2
417.903	3117.2
418.366	3699.1
418.83	4444.7
419.293	5254.9
419.756	6204.3
420.219	7345.7
420.682	8329.8
421.145	9189.1
421.608	10146.6
422.072	11113.6
422.535	12110.3
422.998	12758.5
423.46	13050.5
423.923	13296.6
424.386	13563.4
424.849	13714.7
425.312	13507
425.775	12866
426.238	12210.8
426.7	11458
427.163	10799.3
427.626	9932.5
428.089	9150.5
428.551	8329.6
429.014	7543.7
429.477	6765
429.939	6009.5
430.402	5276.8
430.864	4519.8
431.327	3930.5
431.789	3513.1
432.252	3053.5
432.714	2664.7
433.176	2326.2
433.639	2090.2
434.101	1863.3
434.563	1672.1
435.026	1505.2
435.488	1387
435.95	1268.5
436.412	1176.3
436.875	1092.1
437.337	1048.3
437.799	1010.5
438.261	970.5
438.723	945.6
439.185	921.3
439.647	917.8
440.109	900.9
440.571	880.7
441.033	870.8
441.495	865.6
441.957	855.1
442.419	855.1
442.881	848.6
443.342	843.4
443.804	843.8
444.266	839.8
444.728	830
445.189	833
445.651	829.4
446.113	826.3
446.574	826.8
447.036	818
447.497	817.8
447.959	816.1
448.421	808.1
448.882	811.6
449.343	808.8
449.805	805.6
450.266	806.5
450.728	800.6
451.189	802.9
451.65	800.8
452.112	800.5
452.573	797.5
453.034	794.8
453.495	792.2
453.957	792.1
454.418	793.9
454.879	794.9
455.34	794.9
455.801	793.3
456.262	791.6
456.723	792
457.184	786.2
457.645	791
458.106	792.7
458.567	789
459.028	792.2
459.489	788.7
459.95	792.5
460.41	790
460.871	786.8
461.332	792.8
461.793	791.4
462.253	789.9
462.714	786.1
463.175	791.5
463.635	790.4
464.096	795.4
464.556	788.7
465.017	792.1
465.478	786.4
465.938	793.8
466.398	797.5
466.859	789.4
467.319	793.1
467.78	789.8
468.24	785.2
468.7	786.7
469.161	789.6
469.621	784.6
470.081	790.2
470.541	791.8
471.002	795.5
471.462	788.3
471.922	784.4
472.382	787.8
472.842	788.7
473.302	783.6
473.762	787
474.222	791.6
474.682	788.4
475.142	789.7
475.602	790.5
476.062	794.9
476.522	788.2
476.982	787.1
477.442	792.7
477.901	791.4
478.361	791.1
478.821	795.4
479.281	793.9
479.74	793.4
480.2	794.6
480.659	790.1
481.119	795.6
481.579	789.5
482.038	784.9
482.498	789
482.957	784.5
483.417	785.8
483.876	777.8
484.336	785
484.795	783.5
485.254	780.5
485.714	775.2
486.173	784.7
486.632	781.8
487.091	775.1
487.551	775.7
488.01	776.9
488.469	778.9
488.928	780.3
489.387	777.8
489.846	778.4
490.305	782.1
490.764	783.7
491.223	778.8
491.682	779.9
492.141	777.4
492.6	776.1
493.059	772.6
493.518	780.8
493.977	777.4
494.436	778.2
494.895	780.7
495.353	777.6
495.812	777.1
496.271	775.5
496.729	775
497.188	779.9
497.647	775
498.105	777.4
498.564	785.6
499.022	776.1
499.481	777.1
499.939	778
500.398	779
500.856	776.4
501.315	776.8
501.773	779.2
502.232	782.8
502.69	780.7
503.148	777.2
503.606	778
504.065	779.6
504.523	778.3
504.981	781.3
505.439	770.2
505.897	777.7
506.356	778.7
506.814	776.5
507.272	785
507.73	774.6
508.188	777
508.646	773.7
509.104	773.8
509.562	779.7
510.02	778.9
510.477	781
510.935	775.8
511.393	774.5
511.851	777.7
512.309	777.1
512.766	772.8
513.224	776.9
513.682	778.8
514.139	774
514.597	779.5
515.055	779.2
515.512	783.1
515.97	780.5
516.427	776.6
516.885	779.3
517.342	781.1
517.8	777.2
518.257	783.1
518.714	774.7
519.172	776
519.629	775.1
520.086	775.7
520.544	775
521.001	777.8
521.458	775.3
521.915	781.8
522.373	773
522.83	779.4
523.287	777
523.744	778.1
524.201	778.9
524.658	778.7
525.115	775.6
525.572	777.8
526.029	776.3
526.486	780.3
526.943	778.6
527.4	778.5
527.857	778.7
528.313	777.4
528.77	775.1
529.227	781.1
529.684	777.1
530.14	777.3
530.597	778.9
531.054	776.5
531.51	781.7
531.967	776.2
532.423	776.2
532.88	781.5
533.337	772.3
533.793	774.4
534.25	777.8
534.706	778.2
535.162	783.6
535.619	783.7
536.075	775.3
536.531	779.1
536.988	777
537.444	774.7
537.9	780.8
538.356	771.7
538.813	777.4
539.269	777.4
539.725	777.8
540.181	775.2
540.637	775.9
541.093	774.3
541.549	782.2
542.005	781.6
542.461	777.9
542.917	777.5
543.373	774.6
543.829	779.9
544.285	777.1
544.741	776.2
545.197	783.2
545.652	778.7
546.108	779.1
546.564	780.2
547.02	778
547.475	777.4
547.931	776.3
548.387	773.1
548.842	774
549.298	773.1
549.753	772.9
550.209	780.2
550.664	783.1
551.12	783
551.575	779.3
552.031	776.6
552.486	773.8
552.941	772.6
553.397	773.6
553.852	780.5
554.307	775.6
554.762	779.1
555.218	776.8
555.673	778.9
556.128	781.3
556.583	774.5
557.038	771.3
557.493	780.1
557.948	774.6
558.403	776.1
558.858	777.1
559.313	777.8
559.768	771.2
560.223	770.6
560.678	773.2
561.133	778.7
561.588	774.8
562.043	775.3
562.497	776.2
562.952	776.6
563.407	775.8
563.862	777.5
564.316	776.8
564.771	779.6
565.226	776.8
565.68	774.1
566.135	776.2
566.589	778.4
567.044	779.2
567.498	778.7
567.953	775
568.407	774.6
568.862	774.8
569.316	778.4
569.77	781
570.225	774.4
570.679	775.4
571.133	781.2
571.587	778.3
572.042	775.5
572.496	774.7
572.95	773.6
573.404	781
573.858	773.7
574.312	778.4
574.766	778.6
575.22	775.5
575.674	776.5
576.128	775.4
576.582	772
577.036	776.4
577.49	776.4
577.944	775.1
578.398	778.3
578.852	778.8
579.305	781.4
579.759	774
580.213	771.4
580.666	774
581.12	777.2
581.574	775.6
582.027	772.7
582.481	777.1
582.935	778.4
583.388	774
583.842	775.2
584.295	778.3
584.748	777.1
585.202	777.2
585.655	779.2
586.109	776
586.562	776.2
587.015	775.2
587.469	774.4
587.922	772.3
588.375	774.5
588.828	774.9
589.281	776.8
589.735	774.6
590.188	769.9
590.641	775.7
591.094	781.5
591.547	771.7
592	777.1
592.453	774.4
592.906	779.1
593.359	778.6
593.812	775.7
594.265	772.9
594.717	775.3
595.17	779.8
595.623	777.7
596.076	773.7
596.529	777.7
596.981	775.6
597.434	776
597.887	776.5
598.339	774.1
598.792	772.5
599.245	773
599.697	771.1
600.15	784.2
600.602	779.2
601.055	774.4
601.507	779.2
601.959	769.2
602.412	781.6
602.864	775.9
603.316	777.1
603.769	776.8
604.221	776.4
604.673	776.5
605.126	779.4
605.578	775.5
606.03	775.8
606.482	779.3
606.934	775.3
607.386	777.8
607.838	771
608.29	777.5
608.742	779.6
609.194	777.9
609.646	772.3
610.098	773.6
610.55	774.5
611.002	777.1
611.454	777.4
611.906	776.9
612.357	773.4
612.809	774.7
613.261	774.2
613.713	775.7
614.164	775.2
614.616	775.9
615.068	776.7
615.519	771.8
615.971	776
616.422	776.5
616.874	777.4
617.325	777.3
617.777	775.1
618.228	777.4
618.68	777
619.131	777.4
619.582	775.2
620.034	775.6
620.485	778.1
620.936	777.8
621.387	777.1
621.839	777.8
622.29	773.9
622.741	775.6
623.192	776.4
623.643	777.7
624.094	773.4
624.545	779
624.996	777.9
625.447	773.1
625.898	777.8
626.349	776.9
626.8	774.4
627.251	779.3
627.702	774.4
628.153	775.3
628.604	774.8
629.054	771.5
629.505	776.4
629.956	771.5
630.406	776.2
630.857	779.7
631.308	781
631.758	775.3
632.209	777
632.66	780.8
633.11	780.3
633.561	774.7
634.011	778.6
634.461	773.9
634.912	776.8
635.362	769.8
635.813	774.6
636.263	777.9
636.713	780.6
637.164	775.4
637.614	775.5
638.064	775.1
638.514	779.5
638.964	773.6
639.415	775.2
639.865	780.5
640.315	781
640.765	774.3
641.215	773.8
641.665	778
642.115	777.8
642.565	777.2
643.015	777.1
643.465	773.1
643.915	778.3
644.364	774.3
644.814	771.2
645.264	774.3
645.714	777.8
646.163	774.4
646.613	778.9
647.063	774.2
647.513	778.7
647.962	776.9
648.412	773.4
648.861	776.5
649.311	773.3
649.76	778.5
650.21	768.9
650.659	776
651.109	777.7
651.558	779.5
652.008	773.6
652.457	781.1
652.906	774.5
653.356	777.1
653.805	775.8
654.254	776.1
654.703	777.2
655.152	778.1
655.602	772.1
656.051	776.7
656.5	776.9
656.949	780.2
657.398	778.7
657.847	777.7
658.296	775.3
658.745	768.4
659.194	776.3
659.643	777.5
660.092	775.6
660.541	773.4
660.989	774.1
661.438	772.7
661.887	773.1
662.336	778.2
662.784	780.2
663.233	776.1
663.682	778.8
664.13	773.7
664.579	781.7
665.028	774.7
665.476	772.5
665.925	780
666.373	779.1
666.822	778.1
667.27	777.1
667.719	777.3
668.167	778.8
668.615	775.9
669.064	779
669.512	775.9
669.96	772.4
670.408	775.9
670.857	778
671.305	780.7
671.753	779.7
672.201	777.3
672.649	778.1
673.097	778.6
673.545	777.3
673.993	781.3
674.441	774.8
674.889	774
675.337	778.6
675.785	776.7
676.233	777
676.681	779.8
677.129	779.2
677.577	779.7
678.025	775.8
678.472	775.1
678.92	780.4
679.368	777
679.815	775.2
680.263	775.2
680.711	778.1
681.158	776.3
681.606	775.4
682.053	773.7
682.501	778.8
682.948	776.9
683.396	777.3
683.843	779
684.291	779.7
684.738	773.5
685.185	773.6
685.633	776.3
686.08	776
686.527	772.2
686.974	776.2
687.422	775
687.869	774.8
688.316	771.5
688.763	774.5
689.21	777.4
689.657	774.8
690.104	774.4
690.551	774.3
690.998	780
691.445	778.7
691.892	777.9
692.339	778.7
692.786	774.4
693.233	773.8
693.68	777.9
694.127	775.3
694.573	782.6
695.02	781.6
695.467	776.5
695.913	777.8
696.36	773.8
696.807	776.2
697.253	777.9
697.7	778.5
698.146	777.7
698.593	779.2
699.039	774.6
699.486	778.7
699.932	781.4
700.379	775.6
700.825	773.7
701.272	775.5
701.718	777.7
702.164	775.3
702.61	774.3
703.057	776.5
703.503	775.4
703.949	773.6
704.395	777.6
704.841	778
705.287	778.9
705.734	771.1
706.18	773.8
706.626	777.1
707.072	778.2
707.518	775.9
707.964	778.3
708.409	774.6
708.855	773.2
709.301	773.7
709.747	776.2
710.193	780.1
710.639	778.8
711.084	773.4
711.53	781.2
711.976	777
712.421	775.7
712.867	774.7
713.313	782.2
713.758	779.3
714.204	772
714.649	772.8
715.095	780.3
715.54	778.3
715.986	775.4
716.431	777.9
716.877	773.8
717.322	778.8
717.767	778.5
718.213	776.5
718.658	779.3
719.103	777.4
719.548	773.4
719.994	779.9
720.439	777.7
720.884	776.5
721.329	774.2
721.774	771.6
722.219	781.2
722.664	774.7
723.109	774.6
723.554	783.3
723.999	775.4
724.444	778.4
724.889	777.6
725.334	773.7
725.779	774.6
726.223	776.7
726.668	781.8
727.113	778.6
727.558	779.7
728.002	775.2
728.447	776
728.892	777.7
729.336	781.4
729.781	777.9
730.225	774.4
730.67	779.3
731.114	778.7
731.559	777.4
732.003	774.5
732.448	776.3
732.892	777.8
733.337	773
733.781	777.7
734.225	780.4
734.67	777.3
735.114	774.1
735.558	775
736.002	777.8
736.446	774.8
736.891	777
737.335	779.1
737.779	779.5
738.223	780
738.667	775.9
739.111	777.5
739.555	777.2
739.999	780.6
740.443	779.9
740.887	778.8
741.33	781.3
741.774	776.9
742.218	775.2
742.662	777.1
743.106	778
743.549	777.3
743.993	779.1
744.437	783
744.88	777.7
745.324	780.3
745.768	775.8
746.211	775.4
746.655	781.4
747.098	776.8
747.542	777.4
747.985	780
748.429	773.3
748.872	777.6
749.315	775.9
749.759	780.5
750.202	779.5
750.645	778.1
751.089	772.5
751.532	775.5
751.975	778
752.418	776.7
752.861	778.3
753.305	780.4
753.748	778.2
754.191	773.6
754.634	777.5
755.077	780.6
755.52	775.9
755.963	779.4
756.406	777.2
756.849	778.5
757.291	771.4
757.734	774.7
758.177	777.1
758.62	777.9
759.063	775.2
759.505	771.8
759.948	774.3
760.391	776.5
760.833	771.2
761.276	780.4
761.719	776.2
762.161	778.3
762.604	776.1
763.046	783.7
763.489	779.1
763.931	779.5
764.374	777.3
764.816	775.2
765.258	780.9
765.701	777.4
766.143	778.1
766.585	778.2
767.028	773.8
767.47	779
767.912	779.5
768.354	773.5
768.796	778.7
769.238	777.5
769.681	775.3
770.123	777.8
770.565	780.8
771.007	777.9
771.449	776.8
771.891	778.6
772.333	781.8
772.774	773.2
773.216	780.5
773.658	779.6
774.1	775.4
774.542	780.3
774.984	776.3
775.425	778
775.867	779.4
776.309	777.1
776.75	780.1
777.192	774.1
777.634	778.1
778.075	775.8
778.517	775
778.958	776.7
779.4	777.5
779.841	771
780.283	778.4
780.724	775.4
781.165	779.4
781.607	777.4
782.048	775.5
782.489	773
782.931	779.5
783.372	776.5
783.813	778.1
784.254	779.9
784.695	777.8
785.136	774.4
785.578	776.7
786.019	775.3
786.46	774.3
786.901	776.5
787.342	778.7
787.783	773.7
788.224	770.7
788.664	774.1
789.105	778.3
789.546	778.5
789.987	778.8
790.428	773.7
790.869	779.1
791.309	779.9
791.75	775.4
792.191	779.2
792.631	776.4
793.072	780.2
793.513	775.4
793.953	772
794.394	778
794.834	779.6
795.275	781.9
795.715	772.4
796.156	781.1
796.596	775.6
797.036	778.6
797.477	777.8
797.917	781.1
798.357	775.9
798.798	776.2
799.238	773.9
799.678	779.5
800.118	781.6
800.558	774.8
800.998	778.4
801.439	776.9
801.879	780.4
802.319	776.1
802.759	778.2
803.199	778.1
803.639	782.7
804.079	778.1
804.518	776.2
804.958	776
805.398	776.3
805.838	773.3
806.278	777.4
806.718	778.6
807.157	775.2
807.597	774.5
808.037	781.7
808.476	777.6
808.916	778.8
809.356	776.6
809.795	775.9
810.235	778.7
810.674	776.3
811.114	776.8
811.553	776
811.993	779.9
812.432	777.1
812.871	776.9
813.311	781.7
813.75	777.5
814.189	778.3
814.629	775.7
815.068	779.6
815.507	776.4
815.946	775.6
816.385	777.2
816.824	779.3
817.263	778.6
817.703	776.1
818.142	775.9
818.581	781
819.02	776.2
819.459	778.3
819.897	782.2
820.336	777.6
820.775	779.2
821.214	779.6
821.653	776.1
822.092	777.5
822.53	776.3
822.969	772.9
823.408	781.9
823.847	779.2
824.285	778
824.724	777.1
825.162	774.6
825.601	785.2
826.04	775.4
826.478	778.8
826.916	780.5
827.355	774.6
827.793	775.3
828.232	775.6
828.67	770.5
829.108	775.1
829.547	779.4
829.985	776.2
830.423	783.3
830.862	781.5
831.3	775.6
831.738	777.4
832.176	772.8
832.614	776.1
833.052	779.5
833.49	775.8
833.928	780.5
834.366	778.9
834.804	775.2
835.242	777.2
835.68	778.4
836.118	779.2
836.556	777.1
836.994	776.7
837.432	776.4
837.869	778.6
838.307	773.2
838.745	780.8
839.183	774.5
839.62	780.8
840.058	779
840.496	778
840.933	782
841.371	778.1
841.808	774.8
842.246	777.5
842.683	774.8
843.121	774.4
843.558	773.9
843.995	772.4
844.433	777.5
844.87	777.3
845.307	773.4
845.745	783.3
846.182	778.8
846.619	776.3
847.056	779.8
847.494	779.4
847.931	774.8
848.368	775.3
848.805	775.6
849.242	774.9
849.679	779.8
850.116	771.4
850.553	778.1
850.99	775.4
851.427	776.7
851.864	776.7
852.301	777.1
852.737	781.2
853.174	779
853.611	776.3
854.048	781.9
854.484	779.4
854.921	778.1
855.358	776
855.794	774.1
856.231	780.9
856.668	777.2
857.104	774.1
857.541	776.1
857.977	780.1
858.414	781.1
858.85	775.6
859.286	780.7
859.723	778
860.159	776.4
860.596	772.1
861.032	781.9
861.468	777.6
861.904	777.9
862.341	776
862.777	777.6
863.213	781.6
863.649	775.3
864.085	775.5
864.521	779.7
864.957	772.6
865.393	776.4
865.829	779.7
866.265	783.3
866.701	773.3
867.137	770.6
867.573	773.5
868.009	776.4
868.445	780.7
868.88	774.6
869.316	777.5
869.752	778.4
870.188	776.8
870.623	779.5
871.059	775.3
871.495	777.3
871.93	782.7
872.366	776.9
872.801	783.1
873.237	777.8
873.672	775.1
874.108	779.5
874.543	780.1
874.979	777
875.414	781.1
875.849	772.7
876.285	782.2
876.72	778.1
877.155	776.2
877.59	776.8
878.026	774.9
878.461	777.3
878.896	779.6
879.331	777.2
879.766	778.3
880.201	775.8
880.636	781
881.071	777.2
881.506	775.5
881.941	778.8
882.376	780.8
882.811	777.3
883.246	775.3
883.681	779.2
884.116	779.2
884.55	777.5
884.985	776.6
885.42	779.8
885.855	776.3
886.289	775.8
886.724	777.6
887.159	779.7
887.593	777.2
888.028	775.3
888.462	777.9
888.897	778.4
889.331	777.2
889.766	780.4
890.2	779.7
890.634	779.8
891.069	776.1
891.503	782
891.937	778.9
892.372	779.3
892.806	782.5
893.24	780
893.674	777
894.109	776.5
894.543	774.9
894.977	780.6
895.411	776.7
895.845	776.9
896.279	780.1
896.713	775.5
897.147	779.1
897.581	777.4
898.015	776.1
898.449	778.5
898.883	778
899.316	776.7
899.75	777.8
900.184	781.1
900.618	771.4
901.051	776.5
901.485	777.6
901.919	777.4
902.352	778.1
902.786	778
903.22	779.6
903.653	778.1
904.087	775.6
904.52	774.2
904.954	775
905.387	779.4
905.82	777.5
906.254	774.1
906.687	780.3
907.121	776.4
907.554	776.6
907.987	777.5
908.42	772.4
908.854	776.5
909.287	777.6
909.72	777.4
910.153	782.2
910.586	777.6
911.019	776
911.452	777.2
911.885	776.9
912.318	772.2
912.751	773.8
913.184	775.4
913.617	775.6
914.05	775.8
914.483	775
914.916	779.1
915.348	775.2
915.781	778.6
916.214	773.5
916.647	780.1
917.079	775.2
917.512	780.8
917.944	775.7
918.377	779.1
918.81	772.3
919.242	776.8
919.675	780.5
920.107	782.4
920.54	775.8
920.972	779.9
921.404	774.7
921.837	779.8
922.269	778
922.701	774.2
923.134	775.8
923.566	777.8
923.998	777.5
924.43	775
924.863	779.2
925.295	783
925.727	775.7
926.159	778.5
926.591	778.6
927.023	780.4
927.455	777.5
927.887	778.6
928.319	773.9
928.751	777.3
929.183	780.2
929.615	780
930.046	780.5
930.478	779.6
930.91	773.1
931.342	778.6
931.773	775.3
932.205	775.3
932.637	773
933.068	771.6
933.5	775.3
933.932	776.1
934.363	775.4
934.795	773
935.226	776.4
935.658	777.6
936.089	773.2
936.521	780.3
936.952	781.3
937.383	780.7
937.815	780.9
938.246	774.1
938.677	782
939.108	776.9
939.54	781.1
939.971	776.1
940.402	777.7
940.833	780.1
941.264	777
941.695	779.9
942.126	774.1
942.557	777.1
942.988	773.9
943.419	772.7
943.85	780.7
944.281	778.8
944.712	779
945.143	776.8
945.574	773.7
946.004	774.1
946.435	770.3
946.866	778.3
947.297	776.8
947.727	778.7
948.158	775.7
948.588	776
949.019	778.4
949.45	781.5
949.88	779.9
950.311	774.1
950.741	777.2
951.172	780.1
951.602	776.9
952.032	778
952.463	775.5
952.893	775.6
953.323	774.7
953.754	777
954.184	781.6
954.614	776
955.044	774.3
955.475	781.1
955.905	775
956.335	781.6
956.765	776.3
957.195	773.2
957.625	776.4
958.055	777
958.485	772.5
958.915	775.9
959.345	774.1
959.775	775.4
960.204	781.4
960.634	776.5
961.064	777.3
961.494	778.9
961.924	779.6
962.353	779.3
962.783	777.1
963.213	776.6
963.642	774.4
964.072	773.2
964.501	777.6
964.931	777.9
965.361	777.9
965.79	780.1
966.219	781.2
966.649	774.4
967.078	779.6
967.508	777.9
967.937	776.1
968.366	780.4
968.796	773.2
969.225	781.5
969.654	773.8
970.083	776
970.513	776.5
970.942	777.8
971.371	772.5
971.8	780.1
972.229	776.7
972.658	774.8
973.087	774.1
973.516	775.9
973.945	774.6
974.374	770.8
974.803	775.5
975.232	775.6
975.66	776.6
976.089	778.2
976.518	773.3
976.947	775.1
977.375	782.3
977.804	776.7
978.233	770.3
978.661	774.6
979.09	779.7
979.519	774.2
979.947	777.6
980.376	776
980.804	777.7
981.233	772.7
981.661	774.9
982.09	776.4
982.518	774.8
982.946	781.2
983.375	775.7
983.803	773.2
984.231	777.8
984.659	772.2
985.088	774.8
985.516	781.2
985.944	773.1
986.372	776.5
986.8	778.6
987.228	775.1
987.656	778.1
988.084	777.5
988.512	777.6
988.94	774.1
989.368	771.9
989.796	774.5
990.224	781.5
990.652	777.3
991.08	777.5
991.507	775.3
991.935	774.9
992.363	775.5
992.791	780.8
993.218	777.2
993.646	780.4
994.074	779.7
994.501	781.2
994.929	779.8
995.356	773.3
995.784	778.5
996.211	774.4
996.639	779.6
997.066	775.2
997.493	775.4
997.921	777.5
998.348	782.4
998.775	777.7
999.203	782.4
999.63	780.3
1000.057	776.6
1000.484	781.5
1000.912	773.4
1001.339	776.9
1001.766	773
1002.193	777.8
1002.62	775.8
1003.047	775.4
1003.474	776.3
1003.901	774.8
1004.328	775
1004.755	774.5
1005.182	776.5
1005.608	775.3
1006.035	774.7
1006.462	773.4
1006.889	777.5
1007.316	777.2
1007.742	779.1
1008.169	779.1
1008.596	780
1009.022	776.5
1009.449	773.4
1009.875	777.5
1010.302	777.4
1010.728	774.7
1011.155	779.6
1011.581	779.4
1012.008	778.7
1012.434	772.8
1012.861	778
1013.287	776.6
1013.713	779.7
1014.139	777.5
1014.566	777
1014.992	775.6
1015.418	775.3
1015.844	775.5
1016.27	776.6
1016.697	778.7
1017.123	775.5
1017.549	778.4
1017.975	778.5
1018.401	773.3
1018.827	777.1
1019.253	774.9
1019.679	776.4
1020.104	779.4
1020.53	774.6
1020.956	779.4
1021.382	782.6
1021.808	781.3
1022.233	778.4
1022.659	775.1
1023.085	778.3
1023.51	781
1023.936	773.5
1024.362	780.4
1024.787	774.2
1025.213	776.9
1025.638	781.8
1026.064	770.9
1026.489	776.7
1026.915	780.9
1027.34	772.7
1027.765	775.1
1028.191	778.4
1028.616	776.5
1029.041	782.1
1029.467	782.8
1029.892	781.3
1030.317	776.3
1030.742	773.3
1031.167	776.9
1031.592	774.7
1032.018	776.9
1032.443	779.6
1032.868	778.1
1033.293	778.1
1033.718	775.4
1034.143	777.2
1034.567	774.4
1034.992	780.2
1035.417	778.2
1035.842	782.2
1036.267	775.8
1036.692	777
1037.116	776.6
1037.541	775.4
1037.966	779.4
1038.39	777.3
1038.815	776.1
1039.24	769.8
1039.664	777.2
1040.089	779.3
1040.513	779
1040.938	781.7
1041.362	772.7
1041.787	775.9
1042.211	776.7
1042.635	774.1
1043.06	773.8
1043.484	776.7
1043.908	776.5
1044.333	775.4
1044.757	772.3
1045.181	775.7
1045.605	775.6
1046.029	777.4
1046.454	777.5
1046.878	773.8
1047.302	775.7
1047.726	774.9
1048.15	777.1
1048.574	778.6
1048.998	773
1049.422	772.9
1049.845	777.7
1050.269	780.4
1050.693	777.3
1051.117	773.3
1051.541	777.8
1051.964	775.7
1052.388	770.8
1052.812	770.5
1053.235	775.5
1053.659	777.2
1054.083	777.7
1054.506	774.3
1054.93	775.1
1055.353	772.6
1055.777	776.5
1056.2	774.6
1056.624	777.2
1057.047	773.4
1057.471	780.2
1057.894	775.2
1058.317	776.2
1058.74	779.4
1059.164	775.4
1059.587	774.2
1060.01	782.9
1060.433	779.2
1060.856	773.3
1061.28	778.2
1061.703	776
1062.126	781.1
1062.549	777.1
1062.972	774.3
1063.395	776.3
1063.818	779
1064.241	777.4
1064.663	775.6
1065.086	775.3
1065.509	775.9
1065.932	774.9
1066.355	779.4
1066.777	773.7
1067.2	777.5
1067.623	778.4
1068.046	776.2
1068.468	778.5
1068.891	774.8
1069.313	776.3
1069.736	774.1
1070.158	775.4
1070.581	778.4
1071.003	772.9
1071.426	775.3
1071.848	777.9
1072.271	776.1
1072.693	777.5
1073.115	773.6
1073.538	777.3
1073.96	773.9
1074.382	773.6
1074.804	776.7
1075.226	778
1075.649	777.9
1076.071	778.6
1076.493	775.9
1076.915	777.5
1077.337	775.9
1077.759	774.1
1078.181	779.9
1078.603	772.7
1079.025	769.1
1079.447	774.5
1079.868	774.6
1080.29	779.6
1080.712	773.6
1081.134	774.8
1081.556	775.9
1081.977	774.6
1082.399	780.7
1082.821	769.1
1083.242	777.5
1083.664	774.4
1084.085	777.6
1084.507	777.6
1084.928	776.1
1085.35	774.7
1085.771	776.2
1086.193	774.8
1086.614	775.6
1087.036	770.5
1087.457	773.4
1087.878	777.5
1088.3	773.7
1088.721	776.1
1089.142	774.4
1089.563	778.7
1089.984	775.5
1090.406	776.7
1090.827	776.2
1091.248	772.2
1091.669	778.1
1092.09	779
1092.511	773.7
1092.932	777.7
1093.353	772.9
1093.774	775.5
1094.195	777.2
1094.615	774.7
1095.036	775.8
1095.457	773.2
1095.878	775.5
1096.299	776.9
1096.719	781.4
1097.14	776
1097.561	777.3
1097.981	773.6
1098.402	776.9
1098.822	773.6
1099.243	772.4
1099.663	775.5
1100.084	780.2
1100.504	774.6
1100.925	776.5
1101.345	775.6
1101.766	774.3
1102.186	774.3
1102.606	778.7
1103.026	778.6
1103.447	775.6
1103.867	775
1104.287	778.1
1104.707	775.5
