节点UV_HRD08281_00003.txt的数据
Date: Wed Jan 15 10:26:02 CST 2020
User: lab329
Spectrometer: HR+D0828
触发模式: 0
积分时间 (秒): 2.000000E-1
Scans to average: 10
启用暗噪声校正: false
启用非线性校正: false
滑动平均宽度: 0
X轴模式: Wavelengths
Number of Pixels in Spectrum: 2048
>>>>>Begin Spectral Data<<<<<
186.281	782
186.758	782
187.234	782
187.71	781.9
188.187	783.6
188.663	786.2
189.139	785.9
189.615	784.8
190.091	787.2
190.567	785.1
191.043	785.3
191.519	791.5
191.995	789.3
192.471	788
192.947	786.6
193.423	783.7
193.899	789.8
194.375	790.3
194.851	790.2
195.327	787.9
195.803	791.3
196.278	826.2
196.754	788.2
197.23	785.2
197.706	786.4
198.181	794
198.657	787.1
199.133	782.5
199.608	789.3
200.084	790.5
200.559	787.7
201.035	791.9
201.51	788.8
201.986	784.1
202.461	778.3
202.937	785.2
203.412	794.3
203.887	784.6
204.363	789.1
204.838	787.9
205.313	787.6
205.789	785
206.264	779.1
206.739	786.5
207.214	789.1
207.689	782.8
208.165	787.2
208.64	790.7
209.115	778.3
209.59	781.4
210.065	782.7
210.54	788.4
211.015	782.9
211.49	783
211.965	786
212.44	790.3
212.914	778.5
213.389	780.7
213.864	783.8
214.339	786.4
214.814	780.8
215.288	780.7
215.763	785.4
216.238	786
216.712	786.2
217.187	779.5
217.662	786.9
218.136	785.4
218.611	781.8
219.085	786.6
219.56	784.7
220.034	784.2
220.509	780.9
220.983	778.3
221.458	784.5
221.932	784.9
222.406	787.7
222.881	781.4
223.355	783.7
223.829	781
224.303	782.5
224.778	780.3
225.252	784.4
225.726	784.8
226.2	785.4
226.674	787.8
227.148	790.9
227.622	781.8
228.096	780.1
228.57	781.5
229.044	790.8
229.518	785.5
229.992	799.6
230.466	1014
230.94	805.9
231.414	783.2
231.888	782.7
232.361	780
232.835	784.5
233.309	784
233.783	778.7
234.256	782.4
234.73	785.1
235.204	785.9
235.677	786.5
236.151	783.7
236.624	787.2
237.098	780.9
237.571	781
238.045	783.7
238.518	782.6
238.992	783.2
239.465	782.8
239.939	787
240.412	782.8
240.885	785.8
241.359	783.1
241.832	784.7
242.305	788.2
242.778	784.3
243.251	787.9
243.725	788.2
244.198	788.8
244.671	781.7
245.144	779.7
245.617	792.5
246.09	784.9
246.563	785.3
247.036	782.6
247.509	789
247.982	784.1
248.455	778.6
248.928	779.5
249.4	787.5
249.873	786.1
250.346	784.4
250.819	785.6
251.292	785.8
251.764	781.3
252.237	781.7
252.71	785.6
253.182	783.5
253.655	785.7
254.127	781
254.6	788.1
255.073	905
255.545	794.9
256.018	783.3
256.49	792.8
256.962	786.3
257.435	784.2
257.907	783.2
258.379	788.8
258.852	783.1
259.324	779.8
259.796	785.6
260.269	788.1
260.741	786.6
261.213	781.8
261.685	780.9
262.157	784.7
262.629	786.8
263.101	780.6
263.574	784.1
264.046	788.1
264.518	782
264.99	782.7
265.461	777.8
265.933	788.5
266.405	789.3
266.877	779.7
267.349	787.1
267.821	791.4
268.293	779.7
268.764	784.1
269.236	782.8
269.708	792.3
270.18	783.8
270.651	783.7
271.123	787.8
271.594	785.3
272.066	779.6
272.538	795.4
273.009	795.6
273.481	786.2
273.952	776.5
274.423	780.7
274.895	791
275.366	794.3
275.838	784
276.309	786.3
276.78	783
277.252	787.3
277.723	785.6
278.194	786.9
278.665	787.7
279.136	784.6
279.608	780.6
280.079	781.6
280.55	788.7
281.021	780.7
281.492	783.5
281.963	783.1
282.434	790.8
282.905	782.6
283.376	784.3
283.847	782.9
284.318	787.4
284.789	783.8
285.259	782.5
285.73	782
286.201	788.4
286.672	788.3
287.143	783.6
287.613	783.9
288.084	791.5
288.555	783.8
289.025	784.4
289.496	788.7
289.966	782.3
290.437	785.2
290.907	787.8
291.378	793.8
291.848	783.7
292.319	786.7
292.789	780.5
293.26	785.7
293.73	788.3
294.2	781.5
294.671	778.2
295.141	789.3
295.611	787.3
296.081	783.6
296.552	791.2
297.022	787.3
297.492	788.7
297.962	787.1
298.432	780.9
298.902	788.7
299.372	783.8
299.842	788.2
300.312	788.5
300.782	793.2
301.252	783.6
301.722	788.3
302.192	792.9
302.662	790
303.132	789.3
303.602	783.5
304.071	789.6
304.541	785.2
305.011	777.6
305.481	782.1
305.95	787.6
306.42	784
306.889	786.9
307.359	784.7
307.829	789.1
308.298	789
308.768	788.5
309.237	786.5
309.707	788
310.176	787.2
310.645	782.7
311.115	782.1
311.584	785.9
312.054	788.9
312.523	784.2
312.992	783.9
313.461	784.7
313.931	786.9
314.4	785.2
314.869	783.7
315.338	787
315.807	786.8
316.276	781.2
316.745	788
317.214	791.6
317.683	783.1
318.152	785.9
318.621	784
319.09	787.6
319.559	783.2
320.028	779.1
320.497	787.8
320.966	786.7
321.435	779.7
321.903	783.3
322.372	783.7
322.841	790.4
323.31	786.7
323.778	780.9
324.247	783.6
324.715	789.1
325.184	788.4
325.653	787.4
326.121	786.2
326.59	785.3
327.058	783.9
327.527	787.2
327.995	792.1
328.463	789.6
328.932	791.3
329.4	786.3
329.868	795.2
330.337	791.5
330.805	787.1
331.273	782.7
331.741	788.7
332.21	785.7
332.678	786.7
333.146	791.9
333.614	786.4
334.082	789.8
334.55	789.3
335.018	787.2
335.486	790.5
335.954	784.8
336.422	785.4
336.89	785.2
337.358	784.4
337.826	781
338.294	786.6
338.762	787
339.229	796.7
339.697	787.2
340.165	787.5
340.633	787.2
341.1	792.8
341.568	794.9
342.035	792.8
342.503	798.7
342.971	797.5
343.438	798
343.906	796.2
344.373	806.5
344.841	803.4
345.308	802.2
345.776	804.1
346.243	806.4
346.71	811
347.178	807.3
347.645	813.7
348.112	819.2
348.58	813.1
349.047	812
349.514	820.7
349.981	823.6
350.448	825.6
350.915	824.2
351.383	827.6
351.85	835.3
352.317	840.7
352.784	849.2
353.251	875.1
353.718	926
354.185	1000.9
354.651	1155.4
355.118	1433.6
355.585	1840.1
356.052	2481.5
356.519	3424.2
356.986	4695.8
357.452	6181.6
357.919	7848.4
358.386	9649.5
358.853	11245.6
359.319	12520.8
359.786	13354.2
360.252	13525.4
360.719	13233.6
361.185	12609.2
361.652	11348.8
362.118	9729.9
362.585	8082.7
363.051	6350.3
363.518	4876.6
363.984	3707.9
364.451	2830.3
364.917	2163.3
365.383	1693.3
365.849	1387.2
366.316	1194.5
366.782	1068.6
367.248	984.7
367.714	941.1
368.18	912
368.647	892.6
369.113	869.1
369.579	870.3
370.045	875.9
370.511	867.4
370.977	855.5
371.443	857.9
371.909	854.5
372.374	851.9
372.84	848.1
373.306	847.6
373.772	852.3
374.238	845.6
374.704	841.6
375.169	834.6
375.635	842.4
376.101	834.4
376.566	828.2
377.032	829.7
377.498	825.2
377.963	820.7
378.429	820
378.894	822.7
379.36	818.2
379.825	819.9
380.291	804.9
380.756	807.3
381.222	813.5
381.687	807.1
382.152	809.7
382.618	810.6
383.083	810
383.548	804
384.013	797
384.479	806.9
384.944	802.7
385.409	799
385.874	799.7
386.339	806.7
386.804	799.2
387.269	797
387.734	800
388.199	799.4
388.664	795.4
389.129	787.7
389.594	792.5
390.059	796.2
390.524	798.8
390.989	794.5
391.453	797.3
391.918	798.9
392.383	791.7
392.848	793.5
393.312	800.6
393.777	793.4
394.242	793.3
394.706	793.2
395.171	792.9
395.635	799.9
396.1	792
396.565	790.6
397.029	794.6
397.493	797.2
397.958	794.6
398.422	789.8
398.887	795.4
399.351	793.5
399.815	789.3
400.28	788.7
400.744	793.2
401.208	792.4
401.672	785.8
402.137	792
402.601	793.3
403.065	786.2
403.529	789
403.993	789.6
404.457	792.4
404.921	797.3
405.385	792
405.849	796.9
406.313	795.9
406.777	787.2
407.241	792.2
407.705	793.3
408.169	795.2
408.632	788.3
409.096	784.8
409.56	792.9
410.024	792.9
410.487	792.3
410.951	792.6
411.415	791.7
411.878	790.5
412.342	790.3
412.806	791.3
413.269	794.2
413.733	791.6
414.196	784.8
414.66	788.9
415.123	792.3
415.587	795.1
416.05	789.2
416.513	791.8
416.977	793.9
417.44	791.7
417.903	788.5
418.366	787.4
418.83	794.3
419.293	793.1
419.756	791.3
420.219	791.6
420.682	796.9
421.145	791.8
421.608	788.1
422.072	789.9
422.535	794.7
422.998	791.6
423.46	789.7
423.923	790.8
424.386	790.4
424.849	790.5
425.312	789.2
425.775	793.5
426.238	792.9
426.7	790.7
427.163	791
427.626	791.6
428.089	795.1
428.551	787.7
429.014	786.8
429.477	793.3
429.939	789.2
430.402	784.8
430.864	791.6
431.327	794.8
431.789	792.4
432.252	789.7
432.714	783.3
433.176	793.6
433.639	793.4
434.101	785.8
434.563	791.3
435.026	792.9
435.488	788.2
435.95	789.8
436.412	792.2
436.875	793.5
437.337	787.6
437.799	796.1
438.261	795
438.723	795
439.185	791
439.647	793.3
440.109	789.5
440.571	787.7
441.033	790.7
441.495	790.1
441.957	794.1
442.419	796.3
442.881	788
443.342	788.1
443.804	794.2
444.266	795.7
444.728	790.8
445.189	790.8
445.651	791.1
446.113	792.5
446.574	793.1
447.036	792.5
447.497	798.1
447.959	791.6
448.421	788.1
448.882	791.3
449.343	790.6
449.805	789.8
450.266	789.5
450.728	791.3
451.189	796.1
451.65	791.1
452.112	790.4
452.573	791.2
453.034	791.4
453.495	791.4
453.957	792.7
454.418	792.2
454.879	787.4
455.34	785.2
455.801	790
456.262	795.6
456.723	789.2
457.184	787.4
457.645	789.6
458.106	793.5
458.567	792.4
459.028	789.2
459.489	787.8
459.95	784.7
460.41	789.8
460.871	791.5
461.332	789.2
461.793	793.7
462.253	793.4
462.714	788.7
463.175	787.4
463.635	792.4
464.096	787.6
464.556	791.5
465.017	788.6
465.478	796.4
465.938	792.9
466.398	789.8
466.859	792.1
467.319	797.3
467.78	789.8
468.24	793.7
468.7	792.4
469.161	793
469.621	792.8
470.081	796
470.541	793.7
471.002	793.1
471.462	794.1
471.922	793.1
472.382	795.4
472.842	792.3
473.302	791.9
473.762	789.3
474.222	797.7
474.682	796.6
475.142	795.5
475.602	793.6
476.062	798.2
476.522	796.6
476.982	799.7
477.442	798
477.901	800.9
478.361	808.7
478.821	806.1
479.281	798.6
479.74	802.6
480.2	806.4
480.659	803.2
481.119	804.4
481.579	802.9
482.038	798.6
482.498	794.8
482.957	789.7
483.417	788.1
483.876	782.2
484.336	781.9
484.795	781.8
485.254	781.9
485.714	784.6
486.173	780.6
486.632	783.6
487.091	781
487.551	783.4
488.01	781.3
488.469	778.3
488.928	780.6
489.387	784.9
489.846	782.9
490.305	786.2
490.764	779.4
491.223	780.2
491.682	779.8
492.141	783.5
492.6	786.9
493.059	784.1
493.518	777.7
493.977	790
494.436	785.4
494.895	781.4
495.353	782.1
495.812	787.5
496.271	777.8
496.729	776.7
497.188	778.7
497.647	779.4
498.105	783.1
498.564	781.5
499.022	779.3
499.481	782.1
499.939	780.8
500.398	782.7
500.856	779.5
501.315	782.9
501.773	783.3
502.232	777.2
502.69	781.4
503.148	782.1
503.606	779
504.065	783.8
504.523	778.3
504.981	783.9
505.439	782
505.897	780.4
506.356	782.5
506.814	787.6
507.272	783.8
507.73	782.7
508.188	783.1
508.646	782.2
509.104	784.7
509.562	777.5
510.02	788.4
510.477	788.9
510.935	778.2
511.393	779.4
511.851	781.9
512.309	786
512.766	779
513.224	774.6
513.682	782.2
514.139	786.4
514.597	780.4
515.055	781.7
515.512	781.8
515.97	781.7
516.427	780.6
516.885	777.6
517.342	781.7
517.8	780.3
518.257	777.7
518.714	783.8
519.172	782.1
519.629	781.9
520.086	777
520.544	782
521.001	779.9
521.458	780.4
521.915	782.3
522.373	780.4
522.83	783.8
523.287	783.3
523.744	781.3
524.201	779.8
524.658	788
525.115	785.6
525.572	777.8
526.029	783.3
526.486	783.3
526.943	779
527.4	782.3
527.857	784.6
528.313	780.6
528.77	778.2
529.227	777.9
529.684	780.7
530.14	782.9
530.597	777
531.054	780
531.51	783
531.967	777.6
532.423	778.9
532.88	776.3
533.337	782.8
533.793	779.4
534.25	782.7
534.706	779
535.162	784.4
535.619	779.9
536.075	779.7
536.531	782.8
536.988	779.8
537.444	781.8
537.9	776.4
538.356	783.8
538.813	779.9
539.269	782.9
539.725	780.6
540.181	778.2
540.637	782.8
541.093	778.1
541.549	779.7
542.005	780.6
542.461	783.7
542.917	782.3
543.373	781.4
543.829	780.7
544.285	778.9
544.741	783.5
545.197	786.8
545.652	784.8
546.108	782.8
546.564	777.8
547.02	779.5
547.475	780.2
547.931	785
548.387	776.3
548.842	784.4
549.298	786
549.753	785.6
550.209	783.4
550.664	780.8
551.12	786.4
551.575	782.8
552.031	777.5
552.486	778
552.941	778.3
553.397	827.1
553.852	782.6
554.307	783.9
554.762	787.7
555.218	776.6
555.673	781.8
556.128	784
556.583	783.7
557.038	779.3
557.493	775.4
557.948	781.1
558.403	782.9
558.858	779.8
559.313	775.2
559.768	786.3
560.223	778.6
560.678	780.7
561.133	775.1
561.588	777.1
562.043	780.9
562.497	782.9
562.952	776.8
563.407	777.3
563.862	785.8
564.316	780.8
564.771	772.7
565.226	780.3
565.68	786.6
566.135	778.7
566.589	779.8
567.044	784
567.498	780.4
567.953	780.2
568.407	779.3
568.862	785.5
569.316	784.2
569.77	778.4
570.225	777.4
570.679	790.3
571.133	782.3
571.587	780.1
572.042	776.8
572.496	782.2
572.95	780.1
573.404	778
573.858	779.5
574.312	781.7
574.766	776.4
575.22	779.7
575.674	782.8
576.128	777.8
576.582	782.1
577.036	780.6
577.49	781.4
577.944	783.2
578.398	783
578.852	778.3
579.305	781.4
579.759	780.8
580.213	776.9
580.666	778.8
581.12	782.6
581.574	782
582.027	775
582.481	780.2
582.935	778.4
583.388	780.4
583.842	780.5
584.295	779.7
584.748	785.5
585.202	784.7
585.655	777.8
586.109	781.2
586.562	787.7
587.015	781.5
587.469	783.4
587.922	779
588.375	777.4
588.828	783.5
589.281	778.9
589.735	776.9
590.188	779.3
590.641	775
591.094	775.9
591.547	780.1
592	779.7
592.453	777.6
592.906	777.4
593.359	782.2
593.812	778.7
594.265	782.9
594.717	780.4
595.17	782.1
595.623	778.2
596.076	774.3
596.529	781.6
596.981	785.7
597.434	779.4
597.887	777.7
598.339	778.6
598.792	780.8
599.245	781.5
599.697	777.9
600.15	781.4
600.602	786.7
601.055	785.2
601.507	777.8
601.959	780.5
602.412	784.7
602.864	779.2
603.316	782.5
603.769	778.3
604.221	787
604.673	781.2
605.126	781
605.578	778.6
606.03	785.3
606.482	776.2
606.934	773.9
607.386	781.1
607.838	778.3
608.29	781
608.742	772.5
609.194	781.4
609.646	784.7
610.098	785.3
610.55	778.5
611.002	777.1
611.454	780.6
611.906	777.7
612.357	780.4
612.809	783.6
613.261	784
613.713	780
614.164	776.6
614.616	781.2
615.068	784.9
615.519	778.5
615.971	777.4
616.422	779.3
616.874	779.8
617.325	777.9
617.777	781.4
618.228	781.1
618.68	788.1
619.131	777
619.582	774.2
620.034	791.2
620.485	784.8
620.936	774.4
621.387	780.2
621.839	780.2
622.29	781.9
622.741	778.7
623.192	780
623.643	785
624.094	782.7
624.545	779.7
624.996	780.8
625.447	784.6
625.898	782
626.349	778.1
626.8	779.4
627.251	778.5
627.702	774.1
628.153	775.2
628.604	780.4
629.054	777.8
629.505	781.8
629.956	776.2
630.406	782.3
630.857	780.3
631.308	779.2
631.758	778.9
632.209	782.6
632.66	783.5
633.11	783.1
633.561	777.8
634.011	788.4
634.461	779.9
634.912	781.5
635.362	783.3
635.813	781.6
636.263	780.9
636.713	777.6
637.164	776.8
637.614	782.2
638.064	780.8
638.514	776.9
638.964	774.9
639.415	787.7
639.865	778.7
640.315	776.9
640.765	783.4
641.215	786
641.665	783.2
642.115	781.1
642.565	787.5
643.015	778.6
643.465	780
643.915	776.9
644.364	780.3
644.814	783.1
645.264	778.3
645.714	784.3
646.163	778.7
646.613	775
647.063	782.5
647.513	779.6
647.962	779
648.412	780
648.861	780
649.311	778.6
649.76	779.6
650.21	777.7
650.659	779.4
651.109	778.9
651.558	778.7
652.008	783.5
652.457	779
652.906	781.9
653.356	781.1
653.805	780.5
654.254	777.2
654.703	776.2
655.152	779.1
655.602	781.7
656.051	778.9
656.5	780.9
656.949	779.7
657.398	783.9
657.847	779.2
658.296	779.4
658.745	781.5
659.194	775.7
659.643	782.2
660.092	786.8
660.541	780.5
660.989	779.5
661.438	784.6
661.887	782.6
662.336	784.2
662.784	778.6
663.233	783.8
663.682	782
664.13	781.8
664.579	774
665.028	775.5
665.476	784
665.925	783.6
666.373	780.1
666.822	778
667.27	787.3
667.719	776.8
668.167	777.8
668.615	779.8
669.064	780.3
669.512	777.1
669.96	779.3
670.408	785.8
670.857	778.7
671.305	780.7
671.753	775.6
672.201	784.1
672.649	784
673.097	780.5
673.545	776.4
673.993	783.5
674.441	781.8
674.889	781.4
675.337	777.5
675.785	783.2
676.233	781.7
676.681	781.3
677.129	775.1
677.577	777.6
678.025	777
678.472	778.4
678.92	779.4
679.368	787.8
679.815	781.2
680.263	773.8
680.711	780.7
681.158	778.8
681.606	782.6
682.053	782
682.501	779.8
682.948	781.1
683.396	785.3
683.843	777
684.291	783.2
684.738	787.5
685.185	785.9
685.633	791.2
686.08	781.1
686.527	782
686.974	782
687.422	773.1
687.869	787
688.316	784.8
688.763	774.5
689.21	779.2
689.657	780.2
690.104	780.7
690.551	783.1
690.998	779.8
691.445	781.7
691.892	785.1
692.339	778.5
692.786	783
693.233	778.4
693.68	787
694.127	781.3
694.573	780
695.02	782.8
695.467	781.4
695.913	781.2
696.36	779.4
696.807	786.3
697.253	781.1
697.7	779.2
698.146	775.5
698.593	781.6
699.039	785.6
699.486	778.4
699.932	777.5
700.379	786
700.825	783.4
701.272	780.8
701.718	782.8
702.164	785.2
702.61	783.9
703.057	779.5
703.503	778.9
703.949	782.4
704.395	783.3
704.841	782.6
705.287	782.7
705.734	784.1
706.18	782.9
706.626	779.6
707.072	786
707.518	780.1
707.964	775.7
708.409	781.1
708.855	780.5
709.301	785
709.747	785.9
710.193	780.9
710.639	785.2
711.084	780.8
711.53	781.6
711.976	783.2
712.421	780.5
712.867	777.8
713.313	782
713.758	777
714.204	783.2
714.649	785.8
715.095	784
715.54	785.6
715.986	780.1
716.431	780.3
716.877	772.6
717.322	781.3
717.767	789.8
718.213	776.8
718.658	774.4
719.103	780.9
719.548	785
719.994	774.3
720.439	775.6
720.884	780.5
721.329	784.3
721.774	779.5
722.219	778.9
722.664	785.3
723.109	782.6
723.554	781
723.999	780.8
724.444	780.7
724.889	785.6
725.334	784.3
725.779	777.5
726.223	782.8
726.668	782.8
727.113	778.4
727.558	780.3
728.002	775.3
728.447	780.3
728.892	783
729.336	775.3
729.781	778
730.225	784.5
730.67	785.6
731.114	776.6
731.559	779.2
732.003	787.5
732.448	782.5
732.892	784.1
733.337	785.9
733.781	783.9
734.225	781.3
734.67	783.5
735.114	789.1
735.558	782.8
736.002	778.5
736.446	783.2
736.891	785.8
737.335	783.1
737.779	779.2
738.223	783.3
738.667	786.3
739.111	781.2
739.555	788
739.999	782.6
740.443	780.7
740.887	781
741.33	780
741.774	783.6
742.218	781.4
742.662	778.1
743.106	777.3
743.549	781.9
743.993	784.7
744.437	781.4
744.88	779.8
745.324	781.8
745.768	783.5
746.211	781.6
746.655	776.5
747.098	784.3
747.542	792.8
747.985	782.1
748.429	778.6
748.872	786.8
749.315	784.7
749.759	783.6
750.202	785.4
750.645	782.6
751.089	785.1
751.532	777.1
751.975	784.4
752.418	781.1
752.861	781
753.305	778.4
753.748	780.3
754.191	790
754.634	779.5
755.077	785
755.52	785.9
755.963	783.4
756.406	780.9
756.849	776.6
757.291	780.5
757.734	786.4
758.177	783.1
758.62	784.1
759.063	782.2
759.505	782.7
759.948	777.7
760.391	778.3
760.833	781.4
761.276	781.2
761.719	780.6
762.161	783.7
762.604	792.2
763.046	783.7
763.489	781.5
763.931	785.2
764.374	789.2
764.816	787.5
765.258	780.6
765.701	779.9
766.143	786.1
766.585	791.1
767.028	781.1
767.47	780.5
767.912	783.1
768.354	781.5
768.796	778.6
769.238	786.2
769.681	783.1
770.123	781.4
770.565	781.5
771.007	784.8
771.449	778.8
771.891	784.8
772.333	782.2
772.774	782.4
773.216	783.5
773.658	780.5
774.1	783.3
774.542	781.4
774.984	781.7
775.425	785
775.867	779.9
776.309	781.8
776.75	784.1
777.192	780.4
777.634	783.2
778.075	782.5
778.517	783.2
778.958	779.3
779.4	782.3
779.841	781.8
780.283	780.3
780.724	781
781.165	784.5
781.607	782.7
782.048	785.7
782.489	783.8
782.931	777.2
783.372	786.8
783.813	781.7
784.254	777.7
784.695	782.7
785.136	788.8
785.578	779.4
786.019	784.8
786.46	781.4
786.901	784.9
787.342	779.3
787.783	780.7
788.224	787
788.664	791.3
789.105	779.6
789.546	784.5
789.987	782.6
790.428	783.3
790.869	781.7
791.309	780.9
791.75	784.8
792.191	787
792.631	786.2
793.072	779.7
793.513	781.8
793.953	787.1
794.394	781
794.834	782
795.275	785.1
795.715	786.3
796.156	779
796.596	784.3
797.036	786.2
797.477	785
797.917	780.1
798.357	783
798.798	784.7
799.238	783.1
799.678	779
800.118	781.5
800.558	788.3
800.998	784.7
801.439	782.5
801.879	780.9
802.319	783.1
802.759	784.4
803.199	780.5
803.639	786.6
804.079	783.8
804.518	783.2
804.958	776.7
805.398	783.3
805.838	784.4
806.278	784.9
806.718	778.6
807.157	785.4
807.597	780.9
808.037	785.5
808.476	789.5
808.916	782.9
809.356	781
809.795	776.1
810.235	787
810.674	785.3
811.114	785.7
811.553	776
811.993	783.2
812.432	788.5
812.871	774.3
813.311	786.7
813.75	782
814.189	791.2
814.629	784.7
815.068	782
815.507	783.3
815.946	780.6
816.385	789.7
816.824	773.7
817.263	781.7
817.703	786.6
818.142	783.6
818.581	782.5
819.02	783
819.459	787.7
819.897	780.7
820.336	779.5
820.775	778.8
821.214	789.7
821.653	779.2
822.092	775.9
822.53	784.4
822.969	786.1
823.408	781
823.847	785.2
824.285	787.4
824.724	787.2
825.162	782.1
825.601	785.7
826.04	786.3
826.478	787.7
826.916	787.1
827.355	783.5
827.793	783.9
828.232	785.1
828.67	778.8
829.108	785.6
829.547	783.5
829.985	789.8
830.423	780.3
830.862	785.9
831.3	785.7
831.738	782.4
832.176	781.4
832.614	784
833.052	782.3
833.49	784.3
833.928	781.7
834.366	785.1
834.804	784.5
835.242	780.5
835.68	777
836.118	785.7
836.556	781.1
836.994	780
837.432	782.3
837.869	820
838.307	784.9
838.745	786
839.183	787.2
839.62	785.2
840.058	788.4
840.496	784
840.933	781.2
841.371	782.8
841.808	788.2
842.246	782.7
842.683	788
843.121	792.5
843.558	782
843.995	782.9
844.433	788.7
844.87	785.6
845.307	785.6
845.745	779
846.182	783.3
846.619	785.5
847.056	790
847.494	780
847.931	785
848.368	780.5
848.805	782.8
849.242	782.3
849.679	789.5
850.116	790.1
850.553	783.3
850.99	782.1
851.427	789.5
851.864	786.9
852.301	783.8
852.737	783.8
853.174	785.6
853.611	792.7
854.048	783.9
854.484	783.1
854.921	792.6
855.358	784.5
855.794	782.2
856.231	781.6
856.668	783.9
857.104	788.4
857.541	780.7
857.977	780.1
858.414	783.5
858.85	784.9
859.286	784.4
859.723	783.8
860.159	794.8
860.596	786.8
861.032	805.4
861.468	786.1
861.904	784.3
862.341	785.1
862.777	777.9
863.213	786.2
863.649	789.3
864.085	784.1
864.521	780.1
864.957	782.2
865.393	790.7
865.829	785
866.265	781.4
866.701	781.8
867.137	779
867.573	779.4
868.009	789.6
868.445	785
868.88	786.7
869.316	783.8
869.752	780
870.188	782.9
870.623	779.5
871.059	776.9
871.495	779.4
871.93	780.2
872.366	787.2
872.801	784.6
873.237	782.7
873.672	785.5
874.108	788.6
874.543	781
874.979	784.2
875.414	788
875.849	784.7
876.285	784
876.72	779.2
877.155	787.9
877.59	785.7
878.026	790.5
878.461	781.7
878.896	787
879.331	779.1
879.766	786.6
880.201	786.3
880.636	791.3
881.071	788.4
881.506	778.9
881.941	780.7
882.376	782.8
882.811	785.6
883.246	777.6
883.681	782.5
884.116	785.1
884.55	781.8
884.985	783.6
885.42	783.9
885.855	785
886.289	777.8
886.724	777.9
887.159	786.6
887.593	789.1
888.028	786.6
888.462	791.3
888.897	788
889.331	791.8
889.766	788
890.2	788.3
890.634	788
891.069	787.1
891.503	783.8
891.937	781.7
892.372	787.5
892.806	786.8
893.24	778.8
893.674	777.3
894.109	784
894.543	782.6
894.977	786.8
895.411	784.9
895.845	789.2
896.279	785.2
896.713	780.7
897.147	780.5
897.581	786.7
898.015	783.1
898.449	783.5
898.883	782.6
899.316	785.5
899.75	784.6
900.184	785.6
900.618	786.3
901.051	786.8
901.485	781.6
901.919	782.1
902.352	782.4
902.786	787
903.22	782.7
903.653	783.9
904.087	796.9
904.52	785.6
904.954	780.1
905.387	783.9
905.82	792.1
906.254	787.3
906.687	782.3
907.121	779.1
907.554	784.1
907.987	781.5
908.42	777.5
908.854	781.5
909.287	789
909.72	788.3
910.153	788.7
910.586	787
911.019	788.2
911.452	787.8
911.885	783.6
912.318	781.3
912.751	788.5
913.184	786.3
913.617	775
914.05	780.5
914.483	779.3
914.916	777.6
915.348	781.7
915.781	779
916.214	784.8
916.647	783.4
917.079	782.9
917.512	778.7
917.944	787.2
918.377	786.1
918.81	782.9
919.242	784.5
919.675	785.4
920.107	781.7
920.54	781.2
920.972	779.8
921.404	791.9
921.837	783.9
922.269	782.4
922.701	788.6
923.134	787
923.566	781.7
923.998	778.4
924.43	787.5
924.863	785.4
925.295	781.7
925.727	797.5
926.159	786.1
926.591	783.9
927.023	782.7
927.455	784.3
927.887	786.9
928.319	788.4
928.751	781.9
929.183	783.2
929.615	788.5
930.046	780.9
930.478	776.2
930.91	784.7
931.342	782.8
931.773	785.9
932.205	775.5
932.637	783.1
933.068	780.6
933.5	779.4
933.932	780
934.363	791
934.795	784.2
935.226	785.7
935.658	786.3
936.089	787.2
936.521	787.4
936.952	785.2
937.383	784.3
937.815	784.4
938.246	782.7
938.677	782.5
939.108	786.7
939.54	782.5
939.971	785.8
940.402	782.8
940.833	782.7
941.264	782.1
941.695	781.5
942.126	777.2
942.557	781.9
942.988	783.3
943.419	785.1
943.85	786.2
944.281	781.6
944.712	790.6
945.143	785.5
945.574	783.9
946.004	782.6
946.435	783.6
946.866	780
947.297	778.9
947.727	782.2
948.158	780.7
948.588	781.4
949.019	776.7
949.45	783.5
949.88	782.7
950.311	780.7
950.741	781.9
951.172	786.3
951.602	783.2
952.032	785.1
952.463	780.5
952.893	782.4
953.323	783.8
953.754	776.7
954.184	788.9
954.614	781
955.044	787.5
955.475	782.6
955.905	786.2
956.335	786.7
956.765	780.2
957.195	783.9
957.625	780.3
958.055	784.7
958.485	780.4
958.915	783.8
959.345	781.2
959.775	784.7
960.204	778.5
960.634	778.8
961.064	786.4
961.494	784.7
961.924	780.3
962.353	781.1
962.783	783
963.213	789.1
963.642	788.4
964.072	780.2
964.501	787.7
964.931	789.7
965.361	784
965.79	784.1
966.219	789.6
966.649	789.5
967.078	783.4
967.508	786.6
967.937	780.3
968.366	785
968.796	781.1
969.225	781.3
969.654	785.9
970.083	783.4
970.513	786.7
970.942	785.6
971.371	786
971.8	781
972.229	781.2
972.658	777.2
973.087	781.7
973.516	789.1
973.945	776.4
974.374	785.5
974.803	783.8
975.232	785.9
975.66	785.5
976.089	782.1
976.518	783.1
976.947	783.5
977.375	781.2
977.804	788.6
978.233	788
978.661	782.1
979.09	779.4
979.519	790.7
979.947	779.9
980.376	782.9
980.804	782.6
981.233	783.6
981.661	784.4
982.09	778.3
982.518	777.9
982.946	786.2
983.375	783.7
983.803	785.8
984.231	776.5
984.659	784.5
985.088	783.4
985.516	782.2
985.944	777.3
986.372	782.4
986.8	780.7
987.228	785
987.656	785.6
988.084	781.9
988.512	781.7
988.94	779.6
989.368	780.1
989.796	780.7
990.224	783.6
990.652	780.4
991.08	782.8
991.507	783.5
991.935	786.8
992.363	777.5
992.791	782.8
993.218	785.6
993.646	779.7
994.074	783
994.501	782.1
994.929	784.3
995.356	780
995.784	778.9
996.211	782.7
996.639	785.8
997.066	786.7
997.493	784.2
997.921	780.1
998.348	788.4
998.775	784.4
999.203	781.8
999.63	783
1000.057	784.7
1000.484	806.9
1000.912	779
1001.339	783.8
1001.766	776.7
1002.193	779.9
1002.62	779.7
1003.047	784
1003.474	786.3
1003.901	776.8
1004.328	784.7
1004.755	786
1005.182	778.8
1005.608	777.6
1006.035	779.8
1006.462	777.7
1006.889	785.7
1007.316	782
1007.742	789.3
1008.169	783
1008.596	780.5
1009.022	781.1
1009.449	779.1
1009.875	788.1
1010.302	781.5
1010.728	780.1
1011.155	785.3
1011.581	786.4
1012.008	785.9
1012.434	782.9
1012.861	781.5
1013.287	779.8
1013.713	778.9
1014.139	776.4
1014.566	780
1014.992	780.6
1015.418	778.6
1015.844	782.5
1016.27	784.9
1016.697	780.1
1017.123	777.8
1017.549	778
1017.975	784.8
1018.401	780.9
1018.827	778.7
1019.253	784.4
1019.679	781.4
1020.104	784.8
1020.53	783.4
1020.956	786.9
1021.382	784.4
1021.808	781.2
1022.233	777.2
1022.659	783.2
1023.085	786.1
1023.51	784.5
1023.936	781.7
1024.362	786.5
1024.787	784.3
1025.213	781.4
1025.638	775.8
1026.064	782.2
1026.489	780.1
1026.915	783.3
1027.34	781.6
1027.765	784.4
1028.191	785.8
1028.616	780.5
1029.041	779
1029.467	788.5
1029.892	790.2
1030.317	780.4
1030.742	783.6
1031.167	786.5
1031.592	782.7
1032.018	780.4
1032.443	778.9
1032.868	782.4
1033.293	785.2
1033.718	779.3
1034.143	779.1
1034.567	783.6
1034.992	780.5
1035.417	781
1035.842	777.3
1036.267	784
1036.692	787.3
1037.116	776.9
1037.541	783.4
1037.966	782.3
1038.39	779
1038.815	779.4
1039.24	784.9
1039.664	787.3
1040.089	787.1
1040.513	783.6
1040.938	781.3
1041.362	785.1
1041.787	781.1
1042.211	783.3
1042.635	782.4
1043.06	783.4
1043.484	778.6
1043.908	773.2
1044.333	779.9
1044.757	778.5
1045.181	782.2
1045.605	782.2
1046.029	779.6
1046.454	777.7
1046.878	780.9
1047.302	775.6
1047.726	782.2
1048.15	782.3
1048.574	787.4
1048.998	783.9
1049.422	782.1
1049.845	777.1
1050.269	778.4
1050.693	784.9
1051.117	784.1
1051.541	782.2
1051.964	781.2
1052.388	777.8
1052.812	785.8
1053.235	787.9
1053.659	774.3
1054.083	786.4
1054.506	784.9
1054.93	780.2
1055.353	782.5
1055.777	784
1056.2	784
1056.624	779.5
1057.047	780.1
1057.471	776.1
1057.894	785.2
1058.317	781.8
1058.74	778.1
1059.164	785
1059.587	789.8
1060.01	781.8
1060.433	778.2
1060.856	784.1
1061.28	785
1061.703	783.7
1062.126	780.7
1062.549	783.7
1062.972	783
1063.395	778
1063.818	779.5
1064.241	783.2
1064.663	785.4
1065.086	786.8
1065.509	779.6
1065.932	782.6
1066.355	778.2
1066.777	781.2
1067.2	778
1067.623	784.1
1068.046	780.4
1068.468	780
1068.891	781.1
1069.313	785.6
1069.736	784.6
1070.158	776.1
1070.581	781.5
1071.003	783.7
1071.426	779.8
1071.848	780
1072.271	781.9
1072.693	782.5
1073.115	779
1073.538	778.6
1073.96	785.4
1074.382	781.8
1074.804	783.6
1075.226	779.8
1075.649	780.7
1076.071	777.7
1076.493	772.3
1076.915	776.9
1077.337	784.7
1077.759	779
1078.181	784.5
1078.603	781.3
1079.025	781.8
1079.447	779.9
1079.868	780.6
1080.29	778.3
1080.712	781
1081.134	784
1081.556	783.5
1081.977	779.8
1082.399	783.1
1082.821	783.4
1083.242	776.3
1083.664	776.9
1084.085	786.1
1084.507	783.1
1084.928	776.5
1085.35	782.5
1085.771	777.6
1086.193	779.3
1086.614	781.3
1087.036	780.8
1087.457	784.5
1087.878	781.1
1088.3	782.5
1088.721	781.6
1089.142	781.8
1089.563	779.9
1089.984	780.9
1090.406	780.2
1090.827	782
1091.248	781.5
1091.669	782.6
1092.09	786.2
1092.511	783.5
1092.932	777.3
1093.353	779.6
1093.774	778.1
1094.195	787.2
1094.615	785
1095.036	776.8
1095.457	788.7
1095.878	783.2
1096.299	779.8
1096.719	778.7
1097.14	783.4
1097.561	781.6
1097.981	778.2
1098.402	772.2
1098.822	782.9
1099.243	778.7
1099.663	780.3
1100.084	777.4
1100.504	786.7
1100.925	778.1
1101.345	778
1101.766	783.2
1102.186	783
1102.606	780.4
1103.026	774.8
1103.447	786.2
1103.867	779.6
1104.287	781.1
1104.707	779.5
