节点UV_HRD08281_00018.txt的数据
Date: Wed Jan 15 10:36:48 CST 2020
User: lab329
Spectrometer: HR+D0828
触发模式: 0
积分时间 (秒): 4.000000E-3
Scans to average: 10
启用暗噪声校正: false
启用非线性校正: false
滑动平均宽度: 0
X轴模式: Wavelengths
Number of Pixels in Spectrum: 2048
>>>>>Begin Spectral Data<<<<<
186.281	783.9
186.758	783.9
187.234	783.9
187.71	779.7
188.187	779
188.663	776.8
189.139	775.3
189.615	779.8
190.091	778.9
190.567	780.4
191.043	780.8
191.519	778.5
191.995	779.3
192.471	782.9
192.947	780.5
193.423	780.5
193.899	776.9
194.375	780
194.851	783
195.327	779.9
195.803	777.3
196.278	780.9
196.754	778.3
197.23	777.4
197.706	779.1
198.181	779
198.657	784.7
199.133	779.3
199.608	777.7
200.084	779.4
200.559	779.9
201.035	781.7
201.51	775
201.986	776.7
202.461	781.2
202.937	773.7
203.412	777.9
203.887	779.1
204.363	776.3
204.838	777.8
205.313	778.6
205.789	771.9
206.264	779.5
206.739	777.9
207.214	776.8
207.689	781.2
208.165	780
208.64	776.3
209.115	778.6
209.59	778.5
210.065	784.4
210.54	778.6
211.015	777.8
211.49	787.4
211.965	778.5
212.44	780.6
212.914	779.2
213.389	782.5
213.864	776.2
214.339	775.4
214.814	778.7
215.288	784.6
215.763	772.2
216.238	777.3
216.712	777
217.187	780.6
217.662	783.7
218.136	777.3
218.611	776.8
219.085	783.4
219.56	774.6
220.034	777.5
220.509	772.8
220.983	779.3
221.458	782.4
221.932	771.2
222.406	782.4
222.881	784.2
223.355	774.5
223.829	775.8
224.303	780.8
224.778	774.7
225.252	779.9
225.726	777.4
226.2	775.3
226.674	782.8
227.148	776.4
227.622	779.1
228.096	781.1
228.57	778.1
229.044	775.6
229.518	773.7
229.992	775.4
230.466	783.7
230.94	775.8
231.414	782.6
231.888	783.4
232.361	776.4
232.835	780.1
233.309	780.9
233.783	775.4
234.256	777
234.73	779.7
235.204	775.5
235.677	789.5
236.151	774.5
236.624	777.5
237.098	780.5
237.571	773.9
238.045	779.5
238.518	771.3
238.992	774.5
239.465	779.9
239.939	777
240.412	772.9
240.885	782.1
241.359	779.4
241.832	783.8
242.305	783.5
242.778	779.1
243.251	782.9
243.725	778.2
244.198	776.7
244.671	779.1
245.144	780
245.617	779.3
246.09	777.9
246.563	777.2
247.036	784.2
247.509	777.8
247.982	779.8
248.455	784
248.928	783.6
249.4	776
249.873	779.9
250.346	779.8
250.819	777.9
251.292	778
251.764	774.5
252.237	784.2
252.71	781.7
253.182	777.1
253.655	782.1
254.127	781.3
254.6	781.7
255.073	778.4
255.545	782.8
256.018	782.9
256.49	773.5
256.962	777.8
257.435	781.3
257.907	779.5
258.379	783.6
258.852	781.8
259.324	783.4
259.796	782
260.269	776.3
260.741	774.6
261.213	784.1
261.685	777.7
262.157	778.9
262.629	775
263.101	778.7
263.574	779.9
264.046	781.7
264.518	775.2
264.99	778.1
265.461	774.3
265.933	778.1
266.405	778.6
266.877	781.5
267.349	785.4
267.821	779.7
268.293	780.7
268.764	787.7
269.236	775.5
269.708	776.9
270.18	780.2
270.651	776.1
271.123	777.8
271.594	776.4
272.066	779.4
272.538	784.1
273.009	776
273.481	778.7
273.952	785.2
274.423	781.8
274.895	780.4
275.366	780.1
275.838	781.7
276.309	782.5
276.78	777.8
277.252	775.1
277.723	786
278.194	781.2
278.665	775.9
279.136	776.6
279.608	778.3
280.079	781.1
280.55	776
281.021	776.9
281.492	783.1
281.963	778.7
282.434	781.4
282.905	781.1
283.376	776
283.847	785.3
284.318	783.3
284.789	780.2
285.259	784.9
285.73	783.1
286.201	782.7
286.672	779
287.143	782.7
287.613	780
288.084	776.8
288.555	779.3
289.025	781
289.496	776
289.966	777.9
290.437	782.7
290.907	778.4
291.378	782.4
291.848	777.4
292.319	777
292.789	781.9
293.26	777.6
293.73	778.9
294.2	786
294.671	776.6
295.141	777
295.611	776.4
296.081	777.4
296.552	781.7
297.022	781.1
297.492	781.7
297.962	788.5
298.432	782.3
298.902	780.3
299.372	779.6
299.842	777
300.312	781.1
300.782	778.6
301.252	779.5
301.722	785.6
302.192	783.2
302.662	780.4
303.132	778.1
303.602	774.2
304.071	782
304.541	779.2
305.011	777.5
305.481	785
305.95	779.7
306.42	781.2
306.889	786.9
307.359	781.2
307.829	773.9
308.298	774.2
308.768	775.1
309.237	784.9
309.707	778.4
310.176	776.7
310.645	782.4
311.115	785.2
311.584	780.4
312.054	781.9
312.523	779.2
312.992	782.1
313.461	778.7
313.931	779.6
314.4	783.1
314.869	777.8
315.338	776.4
315.807	780.2
316.276	779.9
316.745	786.2
317.214	778.5
317.683	780.3
318.152	789.5
318.621	779.4
319.09	783.9
319.559	778.6
320.028	776.8
320.497	780.8
320.966	780.9
321.435	774.9
321.903	785
322.372	779.7
322.841	781.1
323.31	784.5
323.778	780.9
324.247	782.1
324.715	779.2
325.184	782.1
325.653	784.2
326.121	780.8
326.59	783.5
327.058	785.7
327.527	786.7
327.995	782.6
328.463	777.4
328.932	781.5
329.4	787.3
329.868	782.5
330.337	774.3
330.805	782.4
331.273	780
331.741	785
332.21	783.1
332.678	784.2
333.146	781.4
333.614	782.5
334.082	773.7
334.55	781.6
335.018	782.8
335.486	779.5
335.954	779.6
336.422	777.7
336.89	782.5
337.358	784.6
337.826	777.3
338.294	780.2
338.762	778.3
339.229	780.7
339.697	784.4
340.165	779.6
340.633	785.4
341.1	780.4
341.568	785.8
342.035	783.9
342.503	777
342.971	777.3
343.438	782.3
343.906	777.9
344.373	781.4
344.841	780.5
345.308	784.5
345.776	784.5
346.243	779
346.71	779.7
347.178	781.6
347.645	781.3
348.112	778.7
348.58	782.3
349.047	780.5
349.514	778
349.981	779.9
350.448	778.5
350.915	782.4
351.383	779.4
351.85	785
352.317	783
352.784	780.2
353.251	782.9
353.718	775.5
354.185	781.3
354.651	784.8
355.118	780.7
355.585	779.6
356.052	785.1
356.519	775.5
356.986	781.1
357.452	778.7
357.919	778.6
358.386	786.1
358.853	778.6
359.319	778.4
359.786	786.8
360.252	783
360.719	785.3
361.185	783.2
361.652	775.7
362.118	781.6
362.585	785.1
363.051	777.4
363.518	781.3
363.984	783
364.451	778.3
364.917	782.4
365.383	779.7
365.849	787
366.316	779.5
366.782	779.3
367.248	787.5
367.714	776.1
368.18	780.8
368.647	784.9
369.113	781.1
369.579	780.8
370.045	780.6
370.511	775.8
370.977	786.2
371.443	775.6
371.909	778.3
372.374	780.4
372.84	781.6
373.306	784.5
373.772	782.9
374.238	784.2
374.704	788.2
375.169	779.5
375.635	781.8
376.101	789.3
376.566	782.2
377.032	783.7
377.498	782.4
377.963	780.1
378.429	782.6
378.894	781.4
379.36	782.8
379.825	787.4
380.291	786.3
380.756	783.9
381.222	784.7
381.687	781.2
382.152	783.9
382.618	782.3
383.083	783.1
383.548	786.1
384.013	775.3
384.479	777.8
384.944	783.1
385.409	786.7
385.874	784.5
386.339	781.3
386.804	776.3
387.269	785.5
387.734	780.6
388.199	779.8
388.664	781.7
389.129	785.9
389.594	784.9
390.059	777.6
390.524	783.9
390.989	784.6
391.453	780.8
391.918	779.1
392.383	783.3
392.848	780.1
393.312	787
393.777	779.3
394.242	785
394.706	786.9
395.171	785.5
395.635	784.2
396.1	790.9
396.565	779.4
397.029	780.3
397.493	785.5
397.958	784.5
398.422	786.8
398.887	781.9
399.351	776.3
399.815	787.2
400.28	783.9
400.744	788.7
401.208	787.9
401.672	783.6
402.137	791.1
402.601	783.9
403.065	783.7
403.529	795.3
403.993	784.8
404.457	787.1
404.921	784
405.385	787.5
405.849	789.1
406.313	787.5
406.777	785.7
407.241	793.7
407.705	782.8
408.169	791.9
408.632	790.8
409.096	794.6
409.56	795.7
410.024	793.6
410.487	792.4
410.951	797.2
411.415	791.9
411.878	792.2
412.342	797.8
412.806	796.6
413.269	800.9
413.733	805.5
414.196	803.7
414.66	809.4
415.123	805.7
415.587	808
416.05	814.3
416.513	810.1
416.977	819.8
417.44	822.9
417.903	825.1
418.366	830.4
418.83	832.6
419.293	840.5
419.756	853
420.219	858.6
420.682	874.7
421.145	892.7
421.608	921.2
422.072	958.3
422.535	1011.1
422.998	1075.3
423.46	1160.8
423.923	1268.3
424.386	1423
424.849	1604.5
425.312	1822.2
425.775	2116.3
426.238	2486
426.7	2933.8
427.163	3468.1
427.626	4083
428.089	4838.2
428.551	5562
429.014	6329.8
429.477	7317.2
429.939	8256.1
430.402	9063
430.864	9814
431.327	10711
431.789	11755.9
432.252	12634.2
432.714	13329.8
433.176	13698.8
433.639	13851.9
434.101	13922.7
434.563	13932.1
435.026	13545.4
435.488	13188.1
435.95	12610.3
436.412	11957.5
436.875	11251
437.337	10562.6
437.799	9725.2
438.261	8817.6
438.723	8168.8
439.185	7364.2
439.647	6540.8
440.109	5789.9
440.571	5170.5
441.033	4501.8
441.495	3979.4
441.957	3529.2
442.419	3067.2
442.881	2726.2
443.342	2415.4
443.804	2145.8
444.266	1916.6
444.728	1744.9
445.189	1564.8
445.651	1442.4
446.113	1324.6
446.574	1235.5
447.036	1176.9
447.497	1109.8
447.959	1063.7
448.421	1039.6
448.882	993.6
449.343	971
449.805	949.8
450.266	928.8
450.728	921.3
451.189	903
451.65	893.2
452.112	894.2
452.573	882.4
453.034	874.1
453.495	867.5
453.957	863.5
454.418	859.9
454.879	854.5
455.34	849.7
455.801	852
456.262	845.1
456.723	833.1
457.184	838.3
457.645	827.7
458.106	832.3
458.567	826.5
459.028	826.8
459.489	828.1
459.95	818.7
460.41	819.3
460.871	818.6
461.332	815.1
461.793	813.1
462.253	807.7
462.714	812.1
463.175	810.9
463.635	807.3
464.096	804.6
464.556	810.2
465.017	803.8
465.478	804.7
465.938	803.7
466.398	800.1
466.859	802.1
467.319	801.7
467.78	798.8
468.24	800.1
468.7	799.1
469.161	800.6
469.621	804.9
470.081	797.3
470.541	802.6
471.002	797.4
471.462	797.5
471.922	805.3
472.382	799.1
472.842	801.2
473.302	799.7
473.762	800.2
474.222	800.4
474.682	800.7
475.142	800.5
475.602	806.2
476.062	796.7
476.522	798.1
476.982	807
477.442	804.9
477.901	805
478.361	804.4
478.821	800.9
479.281	807.1
479.74	803.7
480.2	799.2
480.659	812.1
481.119	803.4
481.579	806.4
482.038	803.6
482.498	790.4
482.957	786
483.417	786.3
483.876	775.4
484.336	781
484.795	779.1
485.254	777.7
485.714	780.1
486.173	778.3
486.632	782.6
487.091	776.7
487.551	782.3
488.01	784.5
488.469	776.7
488.928	779.4
489.387	786.7
489.846	777.8
490.305	781.3
490.764	779.5
491.223	778.5
491.682	785.6
492.141	780.5
492.6	775.8
493.059	785.6
493.518	775.3
493.977	776.8
494.436	771.8
494.895	773.8
495.353	780.4
495.812	781
496.271	780.2
496.729	782.9
497.188	779.2
497.647	779.1
498.105	780.6
498.564	779.9
499.022	782.1
499.481	779.9
499.939	775.3
500.398	782.1
500.856	775.9
501.315	778.5
501.773	781
502.232	775.4
502.69	783.9
503.148	773.6
503.606	777.1
504.065	784.7
504.523	779.9
504.981	777.5
505.439	781.7
505.897	781.2
506.356	777.7
506.814	775.8
507.272	783.4
507.73	784.5
508.188	778.2
508.646	779.5
509.104	778.4
509.562	775.3
510.02	782
510.477	779.5
510.935	778.2
511.393	777.2
511.851	773.6
512.309	778.3
512.766	781
513.224	778.9
513.682	778.9
514.139	781
514.597	777.1
515.055	781.9
515.512	775.4
515.97	777.1
516.427	781.3
516.885	773
517.342	775.4
517.8	780.1
518.257	776
518.714	781.5
519.172	777.1
519.629	777.2
520.086	784.1
520.544	776.8
521.001	779.1
521.458	781.3
521.915	777.6
522.373	777.5
522.83	776.5
523.287	773.1
523.744	780.7
524.201	774.8
524.658	777.7
525.115	778.8
525.572	772.7
526.029	776.8
526.486	778.8
526.943	779.7
527.4	778.6
527.857	775
528.313	772.5
528.77	777
529.227	776.5
529.684	778.7
530.14	777.1
530.597	779.4
531.054	780.9
531.51	777.9
531.967	776.3
532.423	781.2
532.88	778.2
533.337	778.1
533.793	781.4
534.25	775.3
534.706	779.7
535.162	777.2
535.619	778.9
536.075	782.8
536.531	772.7
536.988	778.6
537.444	779.8
537.9	781
538.356	777.2
538.813	774.6
539.269	770.3
539.725	778
540.181	776.2
540.637	775
541.093	778.2
541.549	781
542.005	777.5
542.461	774.9
542.917	773.3
543.373	779.1
543.829	774
544.285	776.1
544.741	785.5
545.197	777
545.652	778.3
546.108	775.4
546.564	776.2
547.02	774.7
547.475	779.6
547.931	774.2
548.387	778.5
548.842	779.8
549.298	776.1
549.753	776.4
550.209	778.2
550.664	780
551.12	776.6
551.575	773.1
552.031	783.9
552.486	780.8
552.941	776.3
553.397	778.2
553.852	775
554.307	775.2
554.762	781.7
555.218	772.7
555.673	776.1
556.128	772.6
556.583	774.5
557.038	778.1
557.493	775.3
557.948	776
558.403	772
558.858	774.6
559.313	782.8
559.768	772
560.223	775.8
560.678	775
561.133	774.8
561.588	776.5
562.043	778.4
562.497	774.3
562.952	776.1
563.407	780.5
563.862	778.8
564.316	780.4
564.771	776.9
565.226	777.5
565.68	771.1
566.135	777.5
566.589	780.6
567.044	777.2
567.498	775.7
567.953	777.2
568.407	776.8
568.862	774.2
569.316	779.4
569.77	774.6
570.225	779.5
570.679	772.1
571.133	774.9
571.587	780.3
572.042	775.5
572.496	773.1
572.95	779.2
573.404	781.3
573.858	782.3
574.312	774.2
574.766	775.1
575.22	778.7
575.674	770.5
576.128	770.6
576.582	779.4
577.036	778.9
577.49	776.7
577.944	775.9
578.398	778
578.852	780.3
579.305	776.1
579.759	778.9
580.213	779.6
580.666	775.4
581.12	777.7
581.574	778.1
582.027	773.7
582.481	780.6
582.935	772.6
583.388	771.8
583.842	775.5
584.295	777.9
584.748	776
585.202	778.3
585.655	777.3
586.109	783
586.562	778.9
587.015	778
587.469	778.9
587.922	772.6
588.375	774.7
588.828	776.2
589.281	772.4
589.735	781.8
590.188	777.4
590.641	777.8
591.094	781.3
591.547	780.1
592	777
592.453	782.2
592.906	778.4
593.359	773.6
593.812	775.4
594.265	780.8
594.717	779.5
595.17	772.4
595.623	777
596.076	776.7
596.529	776.5
596.981	776.3
597.434	780.8
597.887	771.5
598.339	780.7
598.792	775.9
599.245	772.4
599.697	778.9
600.15	775.2
600.602	778.7
601.055	779.2
601.507	772.2
601.959	778.8
602.412	776.7
602.864	777.6
603.316	780.8
603.769	777.9
604.221	770.2
604.673	776.1
605.126	774.5
605.578	775.3
606.03	768.5
606.482	773.9
606.934	774.4
607.386	779.4
607.838	776.7
608.29	786.8
608.742	773
609.194	775.5
609.646	776
610.098	775
610.55	780.7
611.002	777.4
611.454	773.2
611.906	778.6
612.357	773.6
612.809	778.2
613.261	774.4
613.713	775.1
614.164	781.4
614.616	773.3
615.068	773.6
615.519	780.3
615.971	773.8
616.422	777.5
616.874	779.1
617.325	777.1
617.777	777.8
618.228	773.9
618.68	774.7
619.131	781
619.582	776.9
620.034	775.7
620.485	781.5
620.936	779
621.387	775.8
621.839	774.3
622.29	772.6
622.741	777
623.192	773.5
623.643	777.1
624.094	783.7
624.545	776.4
624.996	770.6
625.447	774.8
625.898	774.8
626.349	776
626.8	770.8
627.251	776.3
627.702	782.2
628.153	776.4
628.604	774.1
629.054	780.5
629.505	770.8
629.956	779
630.406	773
630.857	776
631.308	783.1
631.758	777.6
632.209	776
632.66	777
633.11	775.8
633.561	776.9
634.011	774.9
634.461	779.7
634.912	780
635.362	775.9
635.813	777.4
636.263	779.6
636.713	772.7
637.164	770.7
637.614	773.9
638.064	773.3
638.514	777.6
638.964	767.4
639.415	777.6
639.865	778.7
640.315	770.6
640.765	779.1
641.215	778.2
641.665	774.4
642.115	779.3
642.565	774.6
643.015	773.1
643.465	778.5
643.915	775.6
644.364	776.9
644.814	776.1
645.264	778.2
645.714	780.7
646.163	776.6
646.613	777.5
647.063	785.1
647.513	773.5
647.962	778.5
648.412	775.3
648.861	776.9
649.311	774.9
649.76	773.7
650.21	772.6
650.659	780.6
651.109	776.4
651.558	774.9
652.008	777.3
652.457	773.5
652.906	776.1
653.356	773.7
653.805	777.2
654.254	783.9
654.703	778.8
655.152	776
655.602	779
656.051	777.4
656.5	778.4
656.949	778.9
657.398	771.9
657.847	777.7
658.296	772.1
658.745	773
659.194	778.1
659.643	773.6
660.092	778.6
660.541	777.6
660.989	773.2
661.438	780.1
661.887	778
662.336	776.3
662.784	783.3
663.233	776.2
663.682	776.1
664.13	774.7
664.579	772.4
665.028	779.1
665.476	771.2
665.925	779.6
666.373	784.2
666.822	775.4
667.27	774.3
667.719	780.7
668.167	777.1
668.615	773.4
669.064	773.1
669.512	770.4
669.96	785.1
670.408	774.5
670.857	776.3
671.305	778
671.753	776
672.201	776.8
672.649	772.8
673.097	779.1
673.545	780.8
673.993	774.9
674.441	777.7
674.889	779.1
675.337	774.3
675.785	774.1
676.233	776.8
676.681	775.3
677.129	778.2
677.577	772.7
678.025	776.4
678.472	780.1
678.92	775
679.368	774.8
679.815	778
680.263	776.8
680.711	779
681.158	773.8
681.606	774.1
682.053	783.4
682.501	775.5
682.948	777.6
683.396	779.1
683.843	776.6
684.291	775
684.738	774.7
685.185	776.6
685.633	780.1
686.08	775.5
686.527	772.5
686.974	780.1
687.422	779.9
687.869	780.7
688.316	775.3
688.763	775.6
689.21	775
689.657	771
690.104	773.5
690.551	788.4
690.998	776.8
691.445	775.6
691.892	777.2
692.339	774.1
692.786	780.5
693.233	776.9
693.68	772.8
694.127	778.3
694.573	769.9
695.02	775.1
695.467	774.1
695.913	773.1
696.36	780.4
696.807	777.4
697.253	773.1
697.7	782.6
698.146	779
698.593	780.8
699.039	777.4
699.486	776.2
699.932	778.6
700.379	773.7
700.825	775.8
701.272	777.8
701.718	777.1
702.164	777.1
702.61	783.7
703.057	777.5
703.503	777.4
703.949	772.7
704.395	779
704.841	782.4
705.287	780.7
705.734	777
706.18	779.2
706.626	777.1
707.072	774.7
707.518	776.5
707.964	779.5
708.409	776
708.855	777.5
709.301	775.4
709.747	782
710.193	778.4
710.639	769.1
711.084	779.1
711.53	777
711.976	778.3
712.421	776.2
712.867	773
713.313	778.2
713.758	776.2
714.204	780.8
714.649	779.7
715.095	779
715.54	778.7
715.986	778.7
716.431	775.5
716.877	783.7
717.322	777.3
717.767	771.8
718.213	779.8
718.658	776.1
719.103	780
719.548	776.7
719.994	775.4
720.439	778.1
720.884	774.5
721.329	775.5
721.774	780.7
722.219	774.8
722.664	773
723.109	774.5
723.554	777.1
723.999	782.6
724.444	777.2
724.889	774.3
725.334	779.8
725.779	776.4
726.223	778.3
726.668	778.3
727.113	777
727.558	775.2
728.002	776.2
728.447	775.5
728.892	778.9
729.336	774.1
729.781	776.4
730.225	776.5
730.67	776.4
731.114	779.5
731.559	773.8
732.003	779.5
732.448	782.4
732.892	778.6
733.337	775.9
733.781	781.1
734.225	773.6
734.67	783.5
735.114	773.2
735.558	777.5
736.002	782.9
736.446	776
736.891	775.5
737.335	778.5
737.779	775.5
738.223	777.9
738.667	774.3
739.111	775.2
739.555	778.2
739.999	776.5
740.443	776.5
740.887	779.7
741.33	774.3
741.774	776.9
742.218	773.7
742.662	780.5
743.106	777.6
743.549	772.2
743.993	776.8
744.437	782.9
744.88	776.8
745.324	777.8
745.768	776.2
746.211	777.1
746.655	777.3
747.098	777.2
747.542	778.8
747.985	781.2
748.429	778
748.872	773
749.315	777.1
749.759	773.9
750.202	779
750.645	775.8
751.089	777.5
751.532	779.4
751.975	775.1
752.418	777.3
752.861	784.1
753.305	778.9
753.748	777.3
754.191	780.1
754.634	774.4
755.077	780.2
755.52	778.2
755.963	776.6
756.406	777.8
756.849	772.1
757.291	778.2
757.734	778.8
758.177	770.4
758.62	778.6
759.063	775.9
759.505	776.7
759.948	784.2
760.391	776.5
760.833	783.6
761.276	779.5
761.719	778.7
762.161	775.6
762.604	777.3
763.046	778.5
763.489	780.5
763.931	773.2
764.374	779.1
764.816	775.7
765.258	775
765.701	775.6
766.143	777.4
766.585	773.6
767.028	776.3
767.47	776.8
767.912	771
768.354	778.6
768.796	773
769.238	776.9
769.681	775.5
770.123	772.4
770.565	777.7
771.007	776
771.449	770.3
771.891	781.9
772.333	772.9
772.774	774.7
773.216	777.5
773.658	775.7
774.1	777.2
774.542	774.4
774.984	773.6
775.425	783.2
775.867	776
776.309	776.1
776.75	781.1
777.192	777.1
777.634	778
778.075	775.8
778.517	779.3
778.958	780.1
779.4	778.7
779.841	776.6
780.283	777.3
780.724	782.2
781.165	775.9
781.607	779.4
782.048	779
782.489	779.7
782.931	774.9
783.372	770.8
783.813	780.8
784.254	777.1
784.695	772.2
785.136	776.7
785.578	774.8
786.019	777.8
786.46	776
786.901	769.1
787.342	778.6
787.783	777.5
788.224	776.1
788.664	773.9
789.105	777.7
789.546	779.3
789.987	776.4
790.428	776.1
790.869	784.5
791.309	776.4
791.75	776.3
792.191	778.2
792.631	777.2
793.072	779.2
793.513	773
793.953	771.2
794.394	777.8
794.834	773
795.275	775.2
795.715	777.6
796.156	774.9
796.596	779.8
797.036	774.3
797.477	773.7
797.917	774.2
798.357	774.3
798.798	780.4
799.238	778.4
799.678	774.4
800.118	780.2
800.558	777.5
800.998	783.9
801.439	781.9
801.879	776
802.319	775.8
802.759	782.3
803.199	773.2
803.639	778.8
804.079	774.2
804.518	777.9
804.958	774
805.398	775.4
805.838	774.5
806.278	781
806.718	775.5
807.157	771.2
807.597	780
808.037	779.5
808.476	777.8
808.916	776.3
809.356	781.6
809.795	784.8
810.235	773.1
810.674	775.1
811.114	777.1
811.553	777.3
811.993	775.7
812.432	773.4
812.871	776.4
813.311	784.1
813.75	779
814.189	776.6
814.629	780.2
815.068	780.7
815.507	776.8
815.946	777.8
816.385	778.6
816.824	787.2
817.263	778.1
817.703	771.2
818.142	777.2
818.581	778.4
819.02	780.9
819.459	776.4
819.897	776.4
820.336	777.1
820.775	772.8
821.214	776.3
821.653	782.7
822.092	775.1
822.53	775.7
822.969	773.7
823.408	774.5
823.847	780.7
824.285	775.8
824.724	773.3
825.162	776
825.601	775.7
826.04	781.9
826.478	775.4
826.916	778.3
827.355	774.4
827.793	775.2
828.232	778.7
828.67	781.6
829.108	773.4
829.547	774.4
829.985	783.3
830.423	776.1
830.862	773.3
831.3	777
831.738	778.7
832.176	782.1
832.614	777.7
833.052	776.9
833.49	785.5
833.928	773.5
834.366	777.3
834.804	780.3
835.242	777.1
835.68	782.5
836.118	774
836.556	771.8
836.994	783
837.432	784
837.869	776.1
838.307	783.2
838.745	780.2
839.183	782.7
839.62	777.8
840.058	781.5
840.496	779.9
840.933	772.7
841.371	778
841.808	779
842.246	780
842.683	780.8
843.121	775.2
843.558	775
843.995	782.6
844.433	776.2
844.87	774.7
845.307	780
845.745	779
846.182	774.7
846.619	774.5
847.056	779.3
847.494	778.6
847.931	770.6
848.368	777.1
848.805	784
849.242	776.4
849.679	778.5
850.116	777.3
850.553	780.2
850.99	782.2
851.427	770.4
851.864	777.6
852.301	780.3
852.737	772
853.174	774.5
853.611	780.1
854.048	776.9
854.484	775.6
854.921	774.2
855.358	774.3
855.794	782.9
856.231	775
856.668	777.4
857.104	779.4
857.541	774.2
857.977	780.7
858.414	777.9
858.85	777.3
859.286	780.5
859.723	773.5
860.159	772.5
860.596	781.2
861.032	775.3
861.468	774.9
861.904	774.7
862.341	774.8
862.777	785.6
863.213	775.7
863.649	771.6
864.085	775.5
864.521	773.9
864.957	773.8
865.393	778.8
865.829	776.3
866.265	776.1
866.701	774.1
867.137	775.8
867.573	778
868.009	777.7
868.445	778
868.88	778.8
869.316	773.6
869.752	778
870.188	773.4
870.623	781.7
871.059	786.1
871.495	779
871.93	776.6
872.366	780.3
872.801	778.7
873.237	776.1
873.672	774
874.108	772.2
874.543	779.5
874.979	773.3
875.414	776.7
875.849	777.2
876.285	774
876.72	771.7
877.155	776.1
877.59	778.7
878.026	776.9
878.461	777
878.896	776.3
879.331	778.9
879.766	782.1
880.201	776.1
880.636	777.8
881.071	773.7
881.506	776.2
881.941	775.7
882.376	770.7
882.811	778.6
883.246	774.6
883.681	777.6
884.116	776
884.55	773.7
884.985	780.7
885.42	778.9
885.855	778.2
886.289	784
886.724	775
887.159	773
887.593	779.3
888.028	777.2
888.462	775.3
888.897	778.9
889.331	777.1
889.766	781
890.2	777.4
890.634	778.3
891.069	779.9
891.503	777.6
891.937	774.8
892.372	777.5
892.806	776.7
893.24	781.3
893.674	773.1
894.109	777.3
894.543	776.4
894.977	770.8
895.411	776.6
895.845	773.6
896.279	775.5
896.713	775.7
897.147	772.7
897.581	780
898.015	783.6
898.449	774.4
898.883	774.3
899.316	774.2
899.75	781.5
900.184	777.4
900.618	776.2
901.051	773.1
901.485	782.7
901.919	776.7
902.352	778.1
902.786	776.2
903.22	771.4
903.653	778.9
904.087	777.5
904.52	780.1
904.954	781.3
905.387	775.2
905.82	781.5
906.254	780.9
906.687	779.6
907.121	780.8
907.554	773.8
907.987	774.8
908.42	783.9
908.854	777.7
909.287	775.5
909.72	776.3
910.153	780.2
910.586	775.4
911.019	777
911.452	778.8
911.885	784.3
912.318	774.1
912.751	780.8
913.184	783.1
913.617	776.1
914.05	775
914.483	777.3
914.916	775.2
915.348	778.5
915.781	770.6
916.214	768.7
916.647	779.9
917.079	775.2
917.512	775
917.944	778
918.377	778.8
918.81	781.7
919.242	775.2
919.675	775
920.107	782.7
920.54	770.7
920.972	777.3
921.404	777.5
921.837	779.3
922.269	777.3
922.701	771.9
923.134	775
923.566	782.1
923.998	776.2
924.43	775.8
924.863	780.8
925.295	773.5
925.727	775.2
926.159	774
926.591	770
927.023	776.8
927.455	770.6
927.887	776.1
928.319	782
928.751	777.4
929.183	776.1
929.615	780.2
930.046	775.1
930.478	776.1
930.91	780.8
931.342	770.4
931.773	775.3
932.205	778
932.637	778.1
933.068	781.3
933.5	775.7
933.932	778.8
934.363	778.5
934.795	773.2
935.226	781.7
935.658	778.1
936.089	777.6
936.521	780.5
936.952	778.9
937.383	776.6
937.815	776.5
938.246	775
938.677	779.6
939.108	772.5
939.54	777.4
939.971	781.2
940.402	774.7
940.833	779.9
941.264	777.2
941.695	777.2
942.126	779.1
942.557	776.6
942.988	777.1
943.419	782.3
943.85	769.5
944.281	778.3
944.712	780.7
945.143	778.1
945.574	780.4
946.004	776
946.435	776
946.866	778.9
947.297	776.7
947.727	777.4
948.158	778.8
948.588	776.1
949.019	780
949.45	780.1
949.88	775.2
950.311	779.2
950.741	774.1
951.172	778.2
951.602	775.8
952.032	778.8
952.463	779.7
952.893	775.4
953.323	774.7
953.754	779.8
954.184	773.9
954.614	782.3
955.044	779.4
955.475	777.9
955.905	778.6
956.335	778.6
956.765	774.6
957.195	775.6
957.625	775.5
958.055	776
958.485	777
958.915	779.4
959.345	774.9
959.775	777.4
960.204	777.8
960.634	778.8
961.064	777.3
961.494	778.5
961.924	780.6
962.353	777.6
962.783	777.2
963.213	780.1
963.642	776.7
964.072	778.4
964.501	772.8
964.931	775.8
965.361	777.1
965.79	772.5
966.219	780.8
966.649	774.7
967.078	772.8
967.508	782.5
967.937	772.9
968.366	773.8
968.796	777.2
969.225	776.4
969.654	774.8
970.083	784.3
970.513	776.9
970.942	774.7
971.371	776.2
971.8	776.1
972.229	781.3
972.658	780.7
973.087	771.7
973.516	781.2
973.945	773.5
974.374	772.3
974.803	776.8
975.232	777.7
975.66	776.3
976.089	775.9
976.518	775.6
976.947	778
977.375	772.6
977.804	775.1
978.233	777.7
978.661	773.6
979.09	779.8
979.519	774.9
979.947	778.1
980.376	777
980.804	776.1
981.233	773.4
981.661	776.5
982.09	777.2
982.518	774.9
982.946	774.7
983.375	773.2
983.803	779.5
984.231	777.4
984.659	772.9
985.088	779.6
985.516	777.6
985.944	778
986.372	777.1
986.8	772.1
987.228	781
987.656	774.2
988.084	773.1
988.512	779.5
988.94	774.5
989.368	777.3
989.796	775.4
990.224	774.5
990.652	781.3
991.08	771.9
991.507	773.1
991.935	783.4
992.363	777.3
992.791	780.8
993.218	778.3
993.646	772.3
994.074	778
994.501	769.7
994.929	775.7
995.356	779.4
995.784	773.2
996.211	774.8
996.639	781.5
997.066	772.5
997.493	780.4
997.921	775.9
998.348	772.3
998.775	784.1
999.203	774.7
999.63	772.4
1000.057	778.8
1000.484	779.8
1000.912	777.6
1001.339	775.2
1001.766	774.8
1002.193	778.6
1002.62	772.7
1003.047	777.5
1003.474	780.6
1003.901	780.1
1004.328	775.9
1004.755	775.8
1005.182	772.4
1005.608	777.3
1006.035	773.5
1006.462	777.1
1006.889	782
1007.316	775
1007.742	776.4
1008.169	779.2
1008.596	775.8
1009.022	777.4
1009.449	774.6
1009.875	770.5
1010.302	784.2
1010.728	774.6
1011.155	775.5
1011.581	779.1
1012.008	776.8
1012.434	775.7
1012.861	777.1
1013.287	771.2
1013.713	777.2
1014.139	775.1
1014.566	776.9
1014.992	779.4
1015.418	774
1015.844	772.7
1016.27	776.2
1016.697	772.8
1017.123	781.6
1017.549	772.3
1017.975	775.6
1018.401	779.1
1018.827	777.9
1019.253	778.2
1019.679	774.9
1020.104	775.9
1020.53	780.8
1020.956	772.8
1021.382	773.9
1021.808	778.8
1022.233	771.1
1022.659	775.7
1023.085	776.6
1023.51	777.7
1023.936	777.3
1024.362	775.7
1024.787	770.6
1025.213	780.6
1025.638	776
1026.064	779.7
1026.489	777.5
1026.915	775.6
1027.34	773.1
1027.765	777.4
1028.191	777.3
1028.616	777.8
1029.041	772.8
1029.467	777.7
1029.892	773.7
1030.317	781
1030.742	774.5
1031.167	778.1
1031.592	778.2
1032.018	783
1032.443	769.9
1032.868	772.1
1033.293	782.6
1033.718	779.1
1034.143	773.8
1034.567	778.8
1034.992	778.8
1035.417	777
1035.842	772.6
1036.267	774.8
1036.692	781.3
1037.116	770.3
1037.541	774.4
1037.966	773.7
1038.39	776.2
1038.815	777.7
1039.24	770.9
1039.664	771.8
1040.089	779.2
1040.513	776.4
1040.938	778.5
1041.362	777
1041.787	772.6
1042.211	778
1042.635	773.3
1043.06	774.2
1043.484	778.3
1043.908	773.6
1044.333	776.7
1044.757	774.9
1045.181	770.9
1045.605	773.7
1046.029	769.6
1046.454	780.7
1046.878	773.3
1047.302	775.2
1047.726	780.6
1048.15	778.2
1048.574	771
1048.998	774.9
1049.422	775.9
1049.845	782.3
1050.269	782.8
1050.693	772.6
1051.117	774.5
1051.541	780
1051.964	775
1052.388	773.3
1052.812	773.8
1053.235	775.2
1053.659	777.1
1054.083	776.1
1054.506	771.1
1054.93	781.7
1055.353	777.7
1055.777	781.5
1056.2	778.5
1056.624	778.7
1057.047	775.2
1057.471	775.4
1057.894	774.2
1058.317	779
1058.74	775.3
1059.164	777.2
1059.587	778.9
1060.01	774.1
1060.433	775.3
1060.856	775.4
1061.28	776.6
1061.703	780.9
1062.126	774.2
1062.549	778.4
1062.972	776
1063.395	777.7
1063.818	771.9
1064.241	777.4
1064.663	780.1
1065.086	778.1
1065.509	778
1065.932	774
1066.355	779.6
1066.777	771.7
1067.2	775.2
1067.623	774.6
1068.046	776.4
1068.468	775.2
1068.891	774.5
1069.313	774.7
1069.736	777.8
1070.158	772.6
1070.581	778.6
1071.003	775.5
1071.426	774.6
1071.848	776.1
1072.271	776.4
1072.693	774.6
1073.115	781.2
1073.538	775.1
1073.96	773.9
1074.382	777.7
1074.804	773.8
1075.226	779.9
1075.649	768.9
1076.071	776
1076.493	779.8
1076.915	775.6
1077.337	773.7
1077.759	777.8
1078.181	772.9
1078.603	777.1
1079.025	772.5
1079.447	775
1079.868	780.6
1080.29	772.7
1080.712	771.3
1081.134	779.6
1081.556	771.8
1081.977	774.8
1082.399	775.2
1082.821	774.4
1083.242	774.6
1083.664	777.9
1084.085	777.1
1084.507	785
1084.928	773
1085.35	779.3
1085.771	777.6
1086.193	772.2
1086.614	776.8
1087.036	776.8
1087.457	773.9
1087.878	777.1
1088.3	776.2
1088.721	774.9
1089.142	778.1
1089.563	775.7
1089.984	777.5
1090.406	776.2
1090.827	776.1
1091.248	778.6
1091.669	777.8
1092.09	777
1092.511	780.8
1092.932	775.5
1093.353	776.1
1093.774	774.1
1094.195	779.4
1094.615	777.2
1095.036	775.7
1095.457	774.2
1095.878	777.5
1096.299	772.2
1096.719	772
1097.14	777.3
1097.561	776.2
1097.981	777.1
1098.402	776.2
1098.822	774.5
1099.243	778.8
1099.663	770.8
1100.084	774.3
1100.504	779.3
1100.925	773
1101.345	776.2
1101.766	778.9
1102.186	776.5
1102.606	781.2
1103.026	771.3
1103.447	774.8
1103.867	771.9
1104.287	777.1
1104.707	775.9
