节点UV_HRD08281_00006.txt的数据
Date: Wed Jan 15 10:29:23 CST 2020
User: lab329
Spectrometer: HR+D0828
触发模式: 0
积分时间 (秒): 5.000000E-2
Scans to average: 10
启用暗噪声校正: false
启用非线性校正: false
滑动平均宽度: 0
X轴模式: Wavelengths
Number of Pixels in Spectrum: 2048
>>>>>Begin Spectral Data<<<<<
186.281	778.2
186.758	778.2
187.234	778.2
187.71	782.7
188.187	780.5
188.663	787.1
189.139	784.2
189.615	788.7
190.091	779.6
190.567	782.5
191.043	782.9
191.519	785.6
191.995	784.1
192.471	785.1
192.947	780.7
193.423	788.5
193.899	779.1
194.375	780.7
194.851	788.4
195.327	777.2
195.803	781.5
196.278	792.9
196.754	781.3
197.23	784.1
197.706	777.5
198.181	784.4
198.657	789.5
199.133	781.3
199.608	780.6
200.084	778.5
200.559	780.8
201.035	786.1
201.51	781.9
201.986	783.2
202.461	787.5
202.937	776.9
203.412	780
203.887	779.8
204.363	782.1
204.838	778.5
205.313	781.6
205.789	782.6
206.264	784
206.739	772.5
207.214	779.6
207.689	786.1
208.165	784
208.64	780.8
209.115	781.1
209.59	782.4
210.065	779.2
210.54	775.6
211.015	780.8
211.49	785.6
211.965	779.3
212.44	781.2
212.914	785
213.389	782.4
213.864	779.8
214.339	782.4
214.814	777.2
215.288	781.4
215.763	775.8
216.238	780.5
216.712	785
217.187	780.6
217.662	782.5
218.136	778.5
218.611	780.1
219.085	784.3
219.56	775.3
220.034	784
220.509	787
220.983	784.5
221.458	782.8
221.932	784.3
222.406	787.1
222.881	778
223.355	779.4
223.829	781.9
224.303	784.6
224.778	781.7
225.252	783.9
225.726	782
226.2	781.8
226.674	782
227.148	778.7
227.622	781
228.096	782.2
228.57	780.2
229.044	784.3
229.518	784.3
229.992	785.7
230.466	851.9
230.94	789.8
231.414	787.7
231.888	782
232.361	777.4
232.835	781.8
233.309	781.8
233.783	781.6
234.256	778.3
234.73	779.4
235.204	786.6
235.677	782.1
236.151	777.5
236.624	783.2
237.098	783.1
237.571	781.8
238.045	781.3
238.518	782
238.992	775.7
239.465	786.8
239.939	777
240.412	782.1
240.885	780.4
241.359	782.6
241.832	782.7
242.305	781
242.778	777.4
243.251	784
243.725	779.7
244.198	787.2
244.671	784.1
245.144	781.8
245.617	780.9
246.09	781.4
246.563	782.1
247.036	785.2
247.509	780.7
247.982	785
248.455	784.1
248.928	777.4
249.4	779.9
249.873	781.4
250.346	783.6
250.819	784.9
251.292	780.7
251.764	782.8
252.237	786.3
252.71	781.5
253.182	781.5
253.655	783
254.127	782.3
254.6	786.2
255.073	810.1
255.545	784.1
256.018	784.4
256.49	781.7
256.962	784
257.435	787
257.907	780.3
258.379	777.3
258.852	779.6
259.324	780.3
259.796	784
260.269	782.5
260.741	783.1
261.213	781.5
261.685	776.3
262.157	779
262.629	781.7
263.101	780.2
263.574	781
264.046	774.4
264.518	779.8
264.99	785.2
265.461	780.2
265.933	778.9
266.405	788
266.877	780.2
267.349	783.2
267.821	774.6
268.293	780.2
268.764	784.5
269.236	777.6
269.708	782
270.18	781.1
270.651	782.7
271.123	781
271.594	782.1
272.066	782.4
272.538	788
273.009	780.9
273.481	787.2
273.952	784.7
274.423	784.5
274.895	779.5
275.366	788.6
275.838	785.9
276.309	787.4
276.78	780.9
277.252	786.1
277.723	785.6
278.194	783.5
278.665	782.5
279.136	781.3
279.608	783.6
280.079	782.7
280.55	777
281.021	784.6
281.492	784.1
281.963	774.7
282.434	780.3
282.905	786.3
283.376	781.3
283.847	779
284.318	775.3
284.789	783.5
285.259	790.8
285.73	782
286.201	780.5
286.672	785.9
287.143	784.3
287.613	778.9
288.084	776.5
288.555	779.7
289.025	787.1
289.496	778.3
289.966	784.6
290.437	787.1
290.907	784
291.378	779.8
291.848	783.6
292.319	777.4
292.789	782.7
293.26	782.9
293.73	783.1
294.2	785.3
294.671	778.8
295.141	782.6
295.611	782.3
296.081	784.4
296.552	782.3
297.022	782.8
297.492	787.5
297.962	784
298.432	786.2
298.902	779.5
299.372	787.1
299.842	781.3
300.312	786.6
300.782	777.9
301.252	784.9
301.722	788.9
302.192	783.8
302.662	783.3
303.132	783.5
303.602	784.4
304.071	782
304.541	783.4
305.011	783.3
305.481	779.4
305.95	777.3
306.42	784
306.889	789
307.359	785.6
307.829	784.9
308.298	783
308.768	786
309.237	782.1
309.707	780.6
310.176	784.5
310.645	780
311.115	780.5
311.584	784.7
312.054	784.6
312.523	781
312.992	782.3
313.461	785.7
313.931	784.7
314.4	784.9
314.869	784.3
315.338	786.7
315.807	787.1
316.276	783
316.745	785.6
317.214	780.4
317.683	778.8
318.152	788.6
318.621	781.5
319.09	783.2
319.559	786.2
320.028	783.4
320.497	781
320.966	781.1
321.435	785.1
321.903	784.8
322.372	781.8
322.841	782.6
323.31	789
323.778	783.6
324.247	784.4
324.715	786.7
325.184	788.5
325.653	788.1
326.121	779.4
326.59	785.6
327.058	786.2
327.527	783.9
327.995	781.2
328.463	784.3
328.932	786.2
329.4	792
329.868	781.5
330.337	786.9
330.805	789.5
331.273	780.8
331.741	782.7
332.21	791.4
332.678	783.6
333.146	782.2
333.614	786.1
334.082	786.6
334.55	785.7
335.018	783.8
335.486	786.5
335.954	786.2
336.422	782.7
336.89	784.3
337.358	781.7
337.826	783.9
338.294	782.8
338.762	779
339.229	783.3
339.697	789.2
340.165	789.9
340.633	786.6
341.1	788.5
341.568	787.4
342.035	787.2
342.503	784.4
342.971	782
343.438	787.4
343.906	784
344.373	788.4
344.841	786.5
345.308	784.1
345.776	782.4
346.243	782.5
346.71	782.8
347.178	784.6
347.645	782.2
348.112	784.9
348.58	789
349.047	784.9
349.514	783.4
349.981	781.9
350.448	790.6
350.915	787.8
351.383	784.9
351.85	784.8
352.317	788.3
352.784	784
353.251	787.8
353.718	782.1
354.185	786.9
354.651	792.1
355.118	788.8
355.585	791.6
356.052	793.9
356.519	786
356.986	793.1
357.452	797
357.919	802.5
358.386	796
358.853	797.3
359.319	805.4
359.786	810.3
360.252	804.9
360.719	807.8
361.185	812.3
361.652	813.6
362.118	808.6
362.585	808.8
363.051	821.3
363.518	821.7
363.984	819.8
364.451	823.6
364.917	830.9
365.383	830.9
365.849	840.1
366.316	838.8
366.782	850.9
367.248	869.2
367.714	896.6
368.18	955.6
368.647	1051.6
369.113	1212.7
369.579	1480
370.045	1902.3
370.511	2481.7
370.977	3377.8
371.443	4541.5
371.909	6090.9
372.374	7877.7
372.84	9708
373.306	11563.1
373.772	13212.9
374.238	14112.9
374.704	14638.5
375.169	14892.6
375.635	14630.2
376.101	14128.7
376.566	13371
377.032	12291.7
377.498	10798.3
377.963	9336.4
378.429	7832.1
378.894	6336
379.36	4902.7
379.825	3923.3
380.291	3136.3
380.756	2587
381.222	2118
381.687	1742.3
382.152	1483.7
382.618	1280.1
383.083	1125.9
383.548	1034.1
384.013	966.2
384.479	919.7
384.944	896.7
385.409	872.7
385.874	867.9
386.339	865.9
386.804	860.3
387.269	856.5
387.734	847.2
388.199	853.9
388.664	849.9
389.129	840.7
389.594	841.5
390.059	832.9
390.524	833.6
390.989	836.5
391.453	828.6
391.918	822.2
392.383	826.6
392.848	817.6
393.312	821.9
393.777	815.5
394.242	812.6
394.706	812.3
395.171	805.2
395.635	806
396.1	811
396.565	798.2
397.029	800
397.493	803.5
397.958	796.2
398.422	798.2
398.887	791
399.351	794.3
399.815	794.5
400.28	793.7
400.744	790
401.208	793.7
401.672	784.3
402.137	790.5
402.601	784.3
403.065	784.5
403.529	788.9
403.993	782.2
404.457	786.6
404.921	786.2
405.385	788.4
405.849	788.6
406.313	788.7
406.777	786.9
407.241	787
407.705	781.8
408.169	788.4
408.632	783.3
409.096	783.4
409.56	789.8
410.024	783.2
410.487	785.2
410.951	788
411.415	781
411.878	784.5
412.342	788.8
412.806	780.5
413.269	783
413.733	787.2
414.196	785.2
414.66	781.3
415.123	780.6
415.587	786.9
416.05	787.8
416.513	785.5
416.977	783.2
417.44	779.7
417.903	785
418.366	779.2
418.83	780.1
419.293	785
419.756	786.5
420.219	777.1
420.682	786.8
421.145	788.2
421.608	784
422.072	781.3
422.535	780.2
422.998	781.7
423.46	782.6
423.923	781.6
424.386	781.2
424.849	784.7
425.312	787.9
425.775	785.2
426.238	787
426.7	782.3
427.163	787
427.626	781.2
428.089	778.7
428.551	781.7
429.014	785.1
429.477	783.2
429.939	782.6
430.402	784.4
430.864	782.9
431.327	774.6
431.789	779.7
432.252	784.1
432.714	783.6
433.176	781.2
433.639	783.2
434.101	779.7
434.563	780.6
435.026	780.6
435.488	782.1
435.95	786.3
436.412	781.9
436.875	783.7
437.337	782.9
437.799	780.6
438.261	782.4
438.723	775.2
439.185	778.7
439.647	789.3
440.109	776.2
440.571	783.4
441.033	783.1
441.495	779.4
441.957	776.8
442.419	782.3
442.881	783.3
443.342	780.8
443.804	777.7
444.266	781.7
444.728	782.5
445.189	780.6
445.651	781.5
446.113	779.3
446.574	778.2
447.036	781
447.497	780.8
447.959	781.7
448.421	784.6
448.882	779.6
449.343	780.7
449.805	786.1
450.266	783.4
450.728	785.7
451.189	779.7
451.65	778.4
452.112	782.5
452.573	775.3
453.034	782.6
453.495	779.3
453.957	780.9
454.418	777.1
454.879	781.8
455.34	779.7
455.801	786.4
456.262	783.3
456.723	775.5
457.184	780.2
457.645	779.8
458.106	782.1
458.567	775.2
459.028	781.2
459.489	782.6
459.95	777.4
460.41	781.7
460.871	782.1
461.332	781.8
461.793	779.2
462.253	779.6
462.714	779
463.175	783.7
463.635	779.6
464.096	776.9
464.556	778.4
465.017	777.6
465.478	779.1
465.938	786.6
466.398	780.1
466.859	780.5
467.319	779.6
467.78	783.5
468.24	781.5
468.7	773.5
469.161	783.4
469.621	781.9
470.081	781.4
470.541	782.3
471.002	778.6
471.462	781.2
471.922	781.1
472.382	776.7
472.842	782
473.302	787.1
473.762	780.2
474.222	780.4
474.682	784
475.142	780.5
475.602	785.6
476.062	778.7
476.522	782.8
476.982	780.8
477.442	781.2
477.901	779.8
478.361	782.4
478.821	778.9
479.281	780.6
479.74	781.4
480.2	783.2
480.659	781.7
481.119	785
481.579	781.9
482.038	784.3
482.498	780.1
482.957	778.6
483.417	779.2
483.876	778
484.336	782
484.795	777
485.254	780.2
485.714	782.2
486.173	781
486.632	776.6
487.091	779.6
487.551	780
488.01	783.2
488.469	777.8
488.928	781.6
489.387	780.5
489.846	776.8
490.305	779.2
490.764	776.7
491.223	779
491.682	781.9
492.141	772.5
492.6	776.1
493.059	780.8
493.518	781.7
493.977	781
494.436	782.6
494.895	779.1
495.353	783.7
495.812	779
496.271	780
496.729	779.1
497.188	775.3
497.647	777.9
498.105	779.8
498.564	778.1
499.022	781.6
499.481	776.6
499.939	776.9
500.398	787.1
500.856	779.3
501.315	778.9
501.773	784.1
502.232	780.7
502.69	780
503.148	772.6
503.606	777.9
504.065	785.7
504.523	778.8
504.981	777.9
505.439	782.1
505.897	779
506.356	782.6
506.814	783
507.272	779.2
507.73	786.9
508.188	778.7
508.646	776.8
509.104	779.2
509.562	776.8
510.02	783.1
510.477	779.9
510.935	777.9
511.393	783.8
511.851	775.9
512.309	782.8
512.766	777.4
513.224	777.7
513.682	774.4
514.139	778.1
514.597	781.3
515.055	782.4
515.512	777.8
515.97	781.4
516.427	780.9
516.885	778.3
517.342	778.5
517.8	778.4
518.257	780
518.714	778.9
519.172	775.4
519.629	773.7
520.086	775.6
520.544	779.1
521.001	783.6
521.458	778.8
521.915	776
522.373	772.6
522.83	776.9
523.287	777.9
523.744	780.3
524.201	776.7
524.658	778.7
525.115	775.6
525.572	774.6
526.029	781.3
526.486	777.8
526.943	778.2
527.4	780.2
527.857	772.9
528.313	779
528.77	779.1
529.227	773.1
529.684	771.1
530.14	780.3
530.597	779.2
531.054	777.4
531.51	774.3
531.967	777.8
532.423	777.7
532.88	777.6
533.337	775.7
533.793	778.7
534.25	779.2
534.706	780.5
535.162	775.7
535.619	776.9
536.075	782.6
536.531	779.4
536.988	775.5
537.444	777.9
537.9	777.8
538.356	777.9
538.813	773
539.269	777.3
539.725	778.7
540.181	777.1
540.637	777.4
541.093	781.6
541.549	778.7
542.005	774.6
542.461	778.3
542.917	782.9
543.373	782.6
543.829	777.7
544.285	777.4
544.741	783
545.197	778.5
545.652	779
546.108	781.9
546.564	782
547.02	783
547.475	774.2
547.931	781.5
548.387	779.3
548.842	771.1
549.298	776
549.753	777.6
550.209	779.3
550.664	780.5
551.12	776
551.575	776.8
552.031	782.5
552.486	776.6
552.941	772.5
553.397	791.9
553.852	783.8
554.307	783
554.762	781
555.218	778.6
555.673	779
556.128	775.4
556.583	780
557.038	778.1
557.493	776.2
557.948	779.6
558.403	775
558.858	782.2
559.313	782.7
559.768	782.3
560.223	777.5
560.678	779.2
561.133	778
561.588	776.8
562.043	777.8
562.497	775.2
562.952	778.1
563.407	776.9
563.862	777.9
564.316	777.9
564.771	776.2
565.226	774.6
565.68	776.5
566.135	774.6
566.589	777.6
567.044	773.8
567.498	775.6
567.953	778
568.407	778.4
568.862	775.3
569.316	777.5
569.77	774.9
570.225	779.2
570.679	777.8
571.133	775.9
571.587	777.5
572.042	779.3
572.496	780.5
572.95	779.7
573.404	773.8
573.858	774.8
574.312	779.2
574.766	781.5
575.22	778.1
575.674	775.8
576.128	780.4
576.582	777.2
577.036	776.4
577.49	776.9
577.944	775.9
578.398	776.6
578.852	778.8
579.305	771
579.759	778.9
580.213	781
580.666	777.5
581.12	783.8
581.574	783.7
582.027	776.9
582.481	782
582.935	772.5
583.388	777.1
583.842	781.5
584.295	775.2
584.748	777.4
585.202	781.2
585.655	777.1
586.109	776.5
586.562	777.6
587.015	775.7
587.469	780.7
587.922	774.4
588.375	777.1
588.828	778
589.281	778.1
589.735	776.3
590.188	774.8
590.641	779.2
591.094	776.2
591.547	779.6
592	779.1
592.453	782.9
592.906	774.4
593.359	777.8
593.812	775.7
594.265	776.2
594.717	774.9
595.17	775.4
595.623	774.2
596.076	782.3
596.529	780.5
596.981	779.1
597.434	779
597.887	778.3
598.339	784
598.792	770.2
599.245	776.1
599.697	781.1
600.15	777.9
600.602	777.7
601.055	779.3
601.507	778.8
601.959	775.6
602.412	771.8
602.864	778.5
603.316	775
603.769	774.3
604.221	780.3
604.673	779.3
605.126	778.3
605.578	771.9
606.03	778
606.482	777.6
606.934	781.9
607.386	777.9
607.838	778.9
608.29	783.4
608.742	774.5
609.194	773.6
609.646	781.1
610.098	780.4
610.55	781.6
611.002	776.2
611.454	776.3
611.906	780.3
612.357	777.2
612.809	776.9
613.261	780.1
613.713	781.2
614.164	778
614.616	775.3
615.068	776
615.519	783.7
615.971	775.2
616.422	777.7
616.874	776.3
617.325	778.4
617.777	775.5
618.228	774.6
618.68	773.3
619.131	778
619.582	775.3
620.034	773.9
620.485	775.7
620.936	776.6
621.387	774.7
621.839	772.7
622.29	782.3
622.741	776.8
623.192	777.3
623.643	784.2
624.094	776.9
624.545	776.4
624.996	775.4
625.447	775.3
625.898	779.2
626.349	777.8
626.8	774
627.251	776.4
627.702	785.7
628.153	775.8
628.604	778.5
629.054	774.5
629.505	774.6
629.956	782.3
630.406	776.7
630.857	775.2
631.308	780.3
631.758	775.5
632.209	775.9
632.66	780.7
633.11	775.7
633.561	779.5
634.011	779.3
634.461	774.4
634.912	778.3
635.362	771.8
635.813	778.2
636.263	776.5
636.713	779.7
637.164	776.5
637.614	776.9
638.064	774.8
638.514	780.8
638.964	770.9
639.415	782.8
639.865	782.4
640.315	773.9
640.765	775
641.215	776.4
641.665	778.3
642.115	781.2
642.565	777.4
643.015	781.3
643.465	784.4
643.915	776
644.364	774
644.814	778.9
645.264	777.2
645.714	779
646.163	775
646.613	777
647.063	782.8
647.513	778
647.962	774.3
648.412	772.7
648.861	772.9
649.311	776.4
649.76	772.5
650.21	776.4
650.659	781.8
651.109	772.5
651.558	776.7
652.008	778
652.457	774.9
652.906	777.8
653.356	779.1
653.805	777.9
654.254	779.6
654.703	775.9
655.152	774.2
655.602	779.5
656.051	774.8
656.5	773.9
656.949	777.1
657.398	774.3
657.847	780.4
658.296	774.7
658.745	779.3
659.194	780.3
659.643	769.4
660.092	778.8
660.541	776.3
660.989	777.8
661.438	776.3
661.887	777.6
662.336	782.3
662.784	778.6
663.233	778.9
663.682	780
664.13	777.8
664.579	775.6
665.028	777.2
665.476	776
665.925	779.8
666.373	780.9
666.822	775.9
667.27	774.1
667.719	779.4
668.167	779.5
668.615	783
669.064	776.5
669.512	777
669.96	781
670.408	773.7
670.857	780.9
671.305	778.2
671.753	776.1
672.201	782.8
672.649	783.5
673.097	774
673.545	776.5
673.993	771.1
674.441	778.2
674.889	776.6
675.337	770.8
675.785	777
676.233	777.7
676.681	778.8
677.129	776.5
677.577	772.5
678.025	777.8
678.472	782.6
678.92	780.2
679.368	779.3
679.815	778.9
680.263	775.3
680.711	782.6
681.158	771.4
681.606	777.9
682.053	783.1
682.501	774.9
682.948	777.6
683.396	776.5
683.843	778.1
684.291	778.4
684.738	777.2
685.185	777.3
685.633	785.1
686.08	779.2
686.527	779.2
686.974	785.7
687.422	776.1
687.869	781.2
688.316	775.2
688.763	777.3
689.21	780.5
689.657	774.7
690.104	779.3
690.551	781.6
690.998	782.2
691.445	776.5
691.892	780.6
692.339	773.4
692.786	776
693.233	772.5
693.68	777.7
694.127	786.3
694.573	777.6
695.02	778.2
695.467	779.2
695.913	776.4
696.36	781.4
696.807	776.8
697.253	778.8
697.7	778.9
698.146	776.8
698.593	772.9
699.039	783.6
699.486	779.7
699.932	776.6
700.379	776
700.825	785.8
701.272	778.9
701.718	772.3
702.164	781.5
702.61	779.3
703.057	780.3
703.503	780.8
703.949	778.4
704.395	780.4
704.841	785.7
705.287	773.4
705.734	774.9
706.18	774.9
706.626	779.6
707.072	779
707.518	775.3
707.964	777
708.409	780.6
708.855	772.7
709.301	779.8
709.747	776.4
710.193	775.5
710.639	776.5
711.084	778.6
711.53	779.5
711.976	777.2
712.421	780.2
712.867	775.4
713.313	781.9
713.758	778.1
714.204	780.9
714.649	782
715.095	782.6
715.54	776.3
715.986	775.6
716.431	779.3
716.877	781.8
717.322	779.1
717.767	780.4
718.213	780.7
718.658	780.8
719.103	783.8
719.548	778.1
719.994	779.3
720.439	779.3
720.884	779.7
721.329	778.1
721.774	780.5
722.219	778.2
722.664	775.8
723.109	774.4
723.554	777.9
723.999	776
724.444	776.4
724.889	777.8
725.334	780.1
725.779	775.6
726.223	777.4
726.668	779.9
727.113	778.6
727.558	783.7
728.002	777.7
728.447	779.9
728.892	780.4
729.336	774.8
729.781	777.3
730.225	779.8
730.67	775.8
731.114	779
731.559	774
732.003	779
732.448	780.8
732.892	776.8
733.337	774
733.781	779
734.225	777.3
734.67	779.2
735.114	777.4
735.558	780.5
736.002	777.5
736.446	777
736.891	784.1
737.335	780.2
737.779	775.7
738.223	779.3
738.667	775.9
739.111	774
739.555	783.1
739.999	775.7
740.443	781.9
740.887	779.1
741.33	778.1
741.774	779.2
742.218	779.3
742.662	775
743.106	778.9
743.549	774.5
743.993	775.5
744.437	781.5
744.88	775
745.324	775.3
745.768	776.4
746.211	775.6
746.655	777
747.098	777
747.542	783.7
747.985	782
748.429	780.7
748.872	777.8
749.315	778
749.759	783.3
750.202	781
750.645	773.7
751.089	775.2
751.532	772.7
751.975	775.1
752.418	779
752.861	783
753.305	780
753.748	778.3
754.191	777.8
754.634	777.5
755.077	780.7
755.52	779.2
755.963	781.6
756.406	779.8
756.849	772
757.291	783.3
757.734	780.7
758.177	780.1
758.62	780.8
759.063	777.6
759.505	781
759.948	782.1
760.391	778.9
760.833	775.3
761.276	782.1
761.719	783.5
762.161	786
762.604	775.6
763.046	781.4
763.489	780.5
763.931	780.1
764.374	782
764.816	778.9
765.258	775.2
765.701	781.9
766.143	778.6
766.585	784.4
767.028	779.6
767.47	774.1
767.912	781.6
768.354	780.8
768.796	781.7
769.238	779.3
769.681	776.1
770.123	780.4
770.565	778.5
771.007	778.9
771.449	779.4
771.891	779.8
772.333	778.4
772.774	780.2
773.216	779.5
773.658	782.4
774.1	774
774.542	777.3
774.984	774.1
775.425	787.9
775.867	775.7
776.309	783.3
776.75	775.4
777.192	777.7
777.634	778.8
778.075	771.1
778.517	779.8
778.958	779.1
779.4	779.2
779.841	775.9
780.283	776.4
780.724	776.1
781.165	779.4
781.607	778
782.048	780.9
782.489	779.4
782.931	770.7
783.372	782
783.813	785.9
784.254	782.9
784.695	776.5
785.136	779.3
785.578	779
786.019	782.8
786.46	776.7
786.901	777.8
787.342	780.4
787.783	781.7
788.224	780.4
788.664	781.3
789.105	774.3
789.546	781.2
789.987	775.7
790.428	778.8
790.869	779.1
791.309	780.6
791.75	779.4
792.191	780.5
792.631	781.6
793.072	780.6
793.513	775.7
793.953	780.9
794.394	781.1
794.834	774.6
795.275	775.8
795.715	783.8
796.156	776
796.596	780.9
797.036	774.6
797.477	779.1
797.917	779.3
798.357	773.5
798.798	779.7
799.238	781.1
799.678	779.2
800.118	777.8
800.558	776.4
800.998	777.5
801.439	783.2
801.879	778.9
802.319	780.7
802.759	779
803.199	780
803.639	781.1
804.079	775.7
804.518	774.7
804.958	777.2
805.398	777.5
805.838	779
806.278	783.3
806.718	777.7
807.157	780.7
807.597	777.1
808.037	775.7
808.476	783.9
808.916	777.8
809.356	778.5
809.795	780.3
810.235	779.5
810.674	774.8
811.114	778.1
811.553	777.1
811.993	782
812.432	780.3
812.871	778.7
813.311	786
813.75	775.5
814.189	779.4
814.629	784.2
815.068	781.4
815.507	783.1
815.946	777
816.385	781.8
816.824	781.4
817.263	778.6
817.703	781.1
818.142	783.2
818.581	779.4
819.02	778.5
819.459	782.3
819.897	775.6
820.336	780.6
820.775	783.3
821.214	779
821.653	780.5
822.092	777.6
822.53	776.8
822.969	775.6
823.408	778.6
823.847	785.6
824.285	778.8
824.724	782.4
825.162	779.6
825.601	775.5
826.04	775.3
826.478	781.1
826.916	776.5
827.355	783.3
827.793	773.9
828.232	779.9
828.67	771.9
829.108	781
829.547	780.1
829.985	786
830.423	776.1
830.862	781.1
831.3	777.2
831.738	780.8
832.176	782.6
832.614	778.9
833.052	779.5
833.49	784.3
833.928	775.4
834.366	779.8
834.804	779.5
835.242	780.4
835.68	778.3
836.118	778.9
836.556	781.9
836.994	782.5
837.432	777.2
837.869	788.6
838.307	777.3
838.745	779
839.183	782.3
839.62	775.4
840.058	777.5
840.496	780.2
840.933	779.7
841.371	776.5
841.808	775.5
842.246	779
842.683	777.5
843.121	775.7
843.558	780.2
843.995	779.6
844.433	778.3
844.87	783.2
845.307	782.6
845.745	780.8
846.182	780.8
846.619	782.1
847.056	778.3
847.494	780.3
847.931	778.2
848.368	777.7
848.805	784.2
849.242	780.8
849.679	778.6
850.116	773.6
850.553	778.9
850.99	781.3
851.427	778.2
851.864	780.7
852.301	782.3
852.737	774.5
853.174	777.6
853.611	775.7
854.048	776.5
854.484	784.8
854.921	780
855.358	780.8
855.794	781.9
856.231	773.7
856.668	778
857.104	778.7
857.541	784.2
857.977	779.4
858.414	773.2
858.85	776.7
859.286	782.8
859.723	779.5
860.159	779.3
860.596	784.6
861.032	789.6
861.468	778
861.904	772.3
862.341	783.8
862.777	779.1
863.213	779.4
863.649	777.8
864.085	779.3
864.521	775
864.957	780.2
865.393	779.9
865.829	780.2
866.265	781.2
866.701	777
867.137	774.6
867.573	778.2
868.009	781.5
868.445	778.5
868.88	778.3
869.316	779.3
869.752	780.8
870.188	777.5
870.623	783.5
871.059	779.7
871.495	775
871.93	776.7
872.366	775.3
872.801	778
873.237	783.8
873.672	777.6
874.108	778.9
874.543	779.8
874.979	773.4
875.414	780.4
875.849	783.5
876.285	780.4
876.72	780.8
877.155	778
877.59	785.7
878.026	780.1
878.461	779.5
878.896	785.5
879.331	781.7
879.766	781.9
880.201	775.3
880.636	776.4
881.071	783.1
881.506	777.5
881.941	779.4
882.376	780.2
882.811	784.7
883.246	782
883.681	783.6
884.116	782
884.55	779.3
884.985	779.3
885.42	779.8
885.855	781.9
886.289	782.4
886.724	780.9
887.159	782.3
887.593	785.6
888.028	779.6
888.462	779.4
888.897	780.4
889.331	782.1
889.766	777.9
890.2	781.9
890.634	772.2
891.069	783
891.503	780.1
891.937	780.7
892.372	779.4
892.806	778.1
893.24	782.7
893.674	778.8
894.109	781.3
894.543	779.4
894.977	779.9
895.411	780.5
895.845	779.8
896.279	779.6
896.713	780.8
897.147	776.6
897.581	780.5
898.015	781.8
898.449	779
898.883	778
899.316	778.7
899.75	777.5
900.184	782.2
900.618	776.1
901.051	778.1
901.485	782.2
901.919	777.8
902.352	782.4
902.786	780.6
903.22	779.2
903.653	777.4
904.087	777.9
904.52	776.9
904.954	778.9
905.387	775.3
905.82	778.8
906.254	779.3
906.687	778.7
907.121	785
907.554	781.6
907.987	781.8
908.42	774.9
908.854	778.5
909.287	780.9
909.72	783.1
910.153	778.2
910.586	779.4
911.019	778.4
911.452	781.4
911.885	784.2
912.318	779.7
912.751	781.7
913.184	782.1
913.617	777.3
914.05	783.6
914.483	778.5
914.916	781.2
915.348	781.8
915.781	774.1
916.214	778.2
916.647	782.8
917.079	782.9
917.512	772.9
917.944	774.3
918.377	783.4
918.81	778.3
919.242	777.2
919.675	775.1
920.107	780.8
920.54	779.7
920.972	782.6
921.404	781
921.837	778.4
922.269	780.4
922.701	774.3
923.134	776.2
923.566	783.4
923.998	777.9
924.43	784.7
924.863	780.8
925.295	782.9
925.727	786.9
926.159	778.8
926.591	777
927.023	782.7
927.455	778.6
927.887	774.2
928.319	784.5
928.751	776.7
929.183	781.1
929.615	781.3
930.046	774.7
930.478	785.3
930.91	778.5
931.342	779.4
931.773	782.5
932.205	779.2
932.637	781.3
933.068	780.6
933.5	780.9
933.932	781.1
934.363	777.5
934.795	779.9
935.226	782.3
935.658	782.9
936.089	780.6
936.521	784.4
936.952	783.9
937.383	781.4
937.815	774.5
938.246	781
938.677	779.3
939.108	774.9
939.54	777.9
939.971	779.8
940.402	777.8
940.833	780.2
941.264	770.9
941.695	778.6
942.126	779.3
942.557	777.6
942.988	779.6
943.419	784.3
943.85	778
944.281	779.2
944.712	778.8
945.143	777.5
945.574	779.1
946.004	780.4
946.435	780.1
946.866	782.8
947.297	778.9
947.727	773.9
948.158	779
948.588	779.4
949.019	779.8
949.45	775.5
949.88	782.8
950.311	780.4
950.741	777.9
951.172	778.7
951.602	776.9
952.032	779.9
952.463	780.2
952.893	774.5
953.323	780.8
953.754	780
954.184	776.4
954.614	778.7
955.044	783.2
955.475	778.6
955.905	782.4
956.335	776.7
956.765	785.9
957.195	783.1
957.625	777
958.055	779
958.485	780.6
958.915	782
959.345	779.8
959.775	778
960.204	778.6
960.634	780.9
961.064	777.7
961.494	777
961.924	781.4
962.353	777.7
962.783	778.8
963.213	782.4
963.642	780
964.072	782.1
964.501	774.1
964.931	777.1
965.361	784.9
965.79	783.3
966.219	785.1
966.649	781.9
967.078	781
967.508	781.5
967.937	778.4
968.366	778.9
968.796	780
969.225	777.7
969.654	782
970.083	779.3
970.513	773.2
970.942	783.5
971.371	777.2
971.8	781.5
972.229	781.6
972.658	778.1
973.087	781.1
973.516	784.4
973.945	779
974.374	778.2
974.803	778.3
975.232	779.7
975.66	783.3
976.089	779.3
976.518	781
976.947	780
977.375	779.7
977.804	778.6
978.233	777
978.661	779.5
979.09	780.5
979.519	776
979.947	778
980.376	781
980.804	772.9
981.233	777.4
981.661	781.5
982.09	775.8
982.518	777.6
982.946	775.9
983.375	781.1
983.803	778.8
984.231	777.2
984.659	783.5
985.088	780.5
985.516	781.4
985.944	781.2
986.372	777
986.8	783.8
987.228	776
987.656	782.4
988.084	777.3
988.512	779.7
988.94	778.1
989.368	775.3
989.796	776.1
990.224	779.7
990.652	785.8
991.08	778.4
991.507	782.8
991.935	778.8
992.363	771.5
992.791	778.7
993.218	780
993.646	781.1
994.074	779.6
994.501	776.1
994.929	778.9
995.356	777.7
995.784	779
996.211	777.8
996.639	777.8
997.066	778.2
997.493	780.6
997.921	779.8
998.348	775.7
998.775	777.9
999.203	784
999.63	782.5
1000.057	781.5
1000.484	782
1000.912	780.3
1001.339	777.7
1001.766	781.7
1002.193	777.4
1002.62	779.5
1003.047	776.7
1003.474	779.3
1003.901	769.7
1004.328	782.2
1004.755	778.8
1005.182	778.2
1005.608	781.5
1006.035	779
1006.462	777.9
1006.889	775.2
1007.316	781.8
1007.742	774.7
1008.169	773.9
1008.596	778.7
1009.022	777.9
1009.449	776.4
1009.875	780.2
1010.302	780.2
1010.728	774.2
1011.155	779
1011.581	778.6
1012.008	779.5
1012.434	778.1
1012.861	774.5
1013.287	778.5
1013.713	779.2
1014.139	776.7
1014.566	780.4
1014.992	783
1015.418	780
1015.844	777
1016.27	776.2
1016.697	780.5
1017.123	779.7
1017.549	774.4
1017.975	782.3
1018.401	781.4
1018.827	778.9
1019.253	780.2
1019.679	774.2
1020.104	776.7
1020.53	777.7
1020.956	777.6
1021.382	777.8
1021.808	778.8
1022.233	777.2
1022.659	776.8
1023.085	774.8
1023.51	780.8
1023.936	777.7
1024.362	781.5
1024.787	780.6
1025.213	782.7
1025.638	772.6
1026.064	780.8
1026.489	778.5
1026.915	774.2
1027.34	779.7
1027.765	779.7
1028.191	776.4
1028.616	780
1029.041	775.1
1029.467	783.7
1029.892	781.3
1030.317	776.5
1030.742	782.3
1031.167	779.4
1031.592	780.9
1032.018	783.9
1032.443	773.6
1032.868	778.5
1033.293	783.7
1033.718	770.7
1034.143	772.5
1034.567	775.1
1034.992	775.8
1035.417	783.2
1035.842	776.2
1036.267	778.3
1036.692	778.3
1037.116	774.5
1037.541	778.5
1037.966	778
1038.39	778.9
1038.815	782.7
1039.24	776
1039.664	784.1
1040.089	779.3
1040.513	780.7
1040.938	781.4
1041.362	779.1
1041.787	778.9
1042.211	776.1
1042.635	777.6
1043.06	777.6
1043.484	779.7
1043.908	771.4
1044.333	778.6
1044.757	779.7
1045.181	778.6
1045.605	778.8
1046.029	773.6
1046.454	780.5
1046.878	782.4
1047.302	780.5
1047.726	778.6
1048.15	778.1
1048.574	778.5
1048.998	780.8
1049.422	778.5
1049.845	777.1
1050.269	773.9
1050.693	780.1
1051.117	773.7
1051.541	780.2
1051.964	777.7
1052.388	777.2
1052.812	777.4
1053.235	779.7
1053.659	778.7
1054.083	778.1
1054.506	781.7
1054.93	783.5
1055.353	781.3
1055.777	775.7
1056.2	776
1056.624	775.1
1057.047	780.8
1057.471	773.3
1057.894	774
1058.317	780.9
1058.74	777.5
1059.164	774.9
1059.587	779.6
1060.01	775.8
1060.433	779.9
1060.856	780
1061.28	778.8
1061.703	781.5
1062.126	774.4
1062.549	775.1
1062.972	782.3
1063.395	773.6
1063.818	783
1064.241	777.6
1064.663	773.5
1065.086	776.8
1065.509	778.3
1065.932	779.3
1066.355	780
1066.777	774.3
1067.2	780.8
1067.623	779.1
1068.046	781.1
1068.468	777.4
1068.891	776.6
1069.313	774.3
1069.736	776.8
1070.158	778.6
1070.581	777.4
1071.003	777.1
1071.426	777
1071.848	775.7
1072.271	774.3
1072.693	779.7
1073.115	778.5
1073.538	778.6
1073.96	775.8
1074.382	773.4
1074.804	776.5
1075.226	781.3
1075.649	773.1
1076.071	781.5
1076.493	778.5
1076.915	780.9
1077.337	781.4
1077.759	778.2
1078.181	781.5
1078.603	776
1079.025	780
1079.447	780.6
1079.868	777.5
1080.29	774.3
1080.712	778.3
1081.134	781.4
1081.556	780.1
1081.977	778.8
1082.399	774.2
1082.821	782.2
1083.242	779.9
1083.664	773.5
1084.085	777
1084.507	776.9
1084.928	778
1085.35	780.7
1085.771	771.5
1086.193	778.9
1086.614	780.5
1087.036	778.1
1087.457	779.2
1087.878	780.3
1088.3	776.7
1088.721	779.8
1089.142	776.4
1089.563	772.3
1089.984	777
1090.406	776.1
1090.827	779.6
1091.248	780.4
1091.669	778.8
1092.09	774.7
1092.511	776.6
1092.932	771.7
1093.353	780.8
1093.774	777.8
1094.195	778.7
1094.615	778.8
1095.036	775.4
1095.457	780.9
1095.878	782.3
1096.299	771.9
1096.719	777
1097.14	768.5
1097.561	777.6
1097.981	781.3
1098.402	777.4
1098.822	775.6
1099.243	778.5
1099.663	778
1100.084	777.8
1100.504	780.6
1100.925	777.4
1101.345	773.8
1101.766	779.1
1102.186	779.8
1102.606	784
1103.026	773.9
1103.447	775.3
1103.867	778.5
1104.287	776
1104.707	784.4
