节点UV_HRD08281_00008.txt的数据
Date: Wed Jan 15 10:32:57 CST 2020
User: lab329
Spectrometer: HR+D0828
触发模式: 0
积分时间 (秒): 1.000000E-2
Scans to average: 10
启用暗噪声校正: false
启用非线性校正: false
滑动平均宽度: 0
X轴模式: Wavelengths
Number of Pixels in Spectrum: 2048
>>>>>Begin Spectral Data<<<<<
186.281	776.2
186.758	776.2
187.234	776.2
187.71	779.2
188.187	777
188.663	780.5
189.139	782.9
189.615	783.1
190.091	781.3
190.567	782.5
191.043	780
191.519	781.2
191.995	782
192.471	783
192.947	782.9
193.423	779.2
193.899	777.8
194.375	784.3
194.851	781
195.327	784.5
195.803	781
196.278	781.6
196.754	783.7
197.23	781.9
197.706	779.6
198.181	782.1
198.657	776.6
199.133	785.5
199.608	779.9
200.084	785.9
200.559	787.3
201.035	780.9
201.51	777
201.986	778.1
202.461	779.2
202.937	783.8
203.412	784.7
203.887	778.9
204.363	780.4
204.838	776.1
205.313	780.5
205.789	780.1
206.264	774.7
206.739	781.9
207.214	780.8
207.689	785.1
208.165	783.9
208.64	779.5
209.115	778.5
209.59	775.4
210.065	778.5
210.54	777.6
211.015	778.3
211.49	778.6
211.965	776
212.44	782.8
212.914	775.2
213.389	775.7
213.864	777
214.339	778.4
214.814	779
215.288	779.9
215.763	778.2
216.238	783.9
216.712	776.8
217.187	782.2
217.662	777.7
218.136	776.5
218.611	782.8
219.085	780
219.56	778.6
220.034	780.9
220.509	776.6
220.983	776.9
221.458	781.9
221.932	779.8
222.406	781.2
222.881	779.4
223.355	781.8
223.829	777.8
224.303	778.4
224.778	779.4
225.252	776.5
225.726	779
226.2	779.7
226.674	777.5
227.148	776.1
227.622	781.4
228.096	778.8
228.57	781.1
229.044	777.3
229.518	777.9
229.992	781.8
230.466	782.8
230.94	781.7
231.414	782.2
231.888	775
232.361	781.8
232.835	782.4
233.309	776.6
233.783	783.5
234.256	780.8
234.73	773
235.204	779.6
235.677	775.5
236.151	777.9
236.624	780
237.098	772.8
237.571	779.2
238.045	779.3
238.518	777
238.992	783.4
239.465	776.9
239.939	780.6
240.412	778.3
240.885	778.3
241.359	783.2
241.832	782.4
242.305	775.4
242.778	780.2
243.251	778.7
243.725	779.6
244.198	779.5
244.671	780.1
245.144	782.7
245.617	781.4
246.09	779
246.563	778.6
247.036	781.1
247.509	779.7
247.982	785.3
248.455	776.5
248.928	778.3
249.4	779.4
249.873	781.6
250.346	784
250.819	778.9
251.292	777.9
251.764	782.2
252.237	781.3
252.71	779.6
253.182	776.7
253.655	778.8
254.127	781.8
254.6	784
255.073	784.6
255.545	783.3
256.018	778.8
256.49	778.8
256.962	780.5
257.435	777.2
257.907	785.4
258.379	778.4
258.852	777
259.324	783.1
259.796	781.2
260.269	777.6
260.741	780.1
261.213	780.6
261.685	782.8
262.157	779.9
262.629	780.4
263.101	778.8
263.574	780.8
264.046	780
264.518	781.7
264.99	779.7
265.461	782.3
265.933	778.6
266.405	781.1
266.877	777.7
267.349	779.7
267.821	780.7
268.293	778.1
268.764	776.5
269.236	779.4
269.708	776.7
270.18	777
270.651	781.2
271.123	783.1
271.594	775.8
272.066	783
272.538	780.7
273.009	781.2
273.481	778.1
273.952	781.5
274.423	778.9
274.895	784.1
275.366	780.2
275.838	788
276.309	784.2
276.78	780.8
277.252	779.4
277.723	778
278.194	780.7
278.665	783.9
279.136	778.2
279.608	780.2
280.079	778
280.55	777.3
281.021	780.2
281.492	777.1
281.963	778.5
282.434	773.9
282.905	781.9
283.376	785.3
283.847	781.2
284.318	776.6
284.789	785.6
285.259	782.3
285.73	787.6
286.201	780.7
286.672	778.8
287.143	785
287.613	783.5
288.084	774.7
288.555	780.3
289.025	779.8
289.496	786
289.966	783.5
290.437	780.7
290.907	784.3
291.378	780.1
291.848	779.5
292.319	786.6
292.789	781.3
293.26	777.5
293.73	778.4
294.2	781.6
294.671	784.5
295.141	783
295.611	780
296.081	782.8
296.552	783.3
297.022	783.4
297.492	782.5
297.962	775.3
298.432	785.9
298.902	787.3
299.372	778.5
299.842	785.9
300.312	785.7
300.782	782.9
301.252	783.5
301.722	777.8
302.192	783.6
302.662	780.8
303.132	777.9
303.602	780.4
304.071	779.6
304.541	782.7
305.011	780.3
305.481	779.6
305.95	782
306.42	782.1
306.889	778.8
307.359	782.9
307.829	780.4
308.298	776.7
308.768	788.8
309.237	781.7
309.707	779.6
310.176	787.7
310.645	780.6
311.115	786.8
311.584	782.9
312.054	777.9
312.523	783.1
312.992	781.1
313.461	779.3
313.931	783.3
314.4	780.6
314.869	783.8
315.338	777
315.807	776.7
316.276	783.4
316.745	780.8
317.214	783.5
317.683	786.7
318.152	780.1
318.621	786.2
319.09	784.5
319.559	783.4
320.028	780.6
320.497	777.8
320.966	781.2
321.435	789.4
321.903	780
322.372	776.9
322.841	780.4
323.31	782.8
323.778	781.5
324.247	781.7
324.715	783.1
325.184	787.8
325.653	779.3
326.121	782.8
326.59	784.1
327.058	778
327.527	784.7
327.995	782.7
328.463	778.6
328.932	780
329.4	784.7
329.868	778.8
330.337	781.6
330.805	781.8
331.273	780.3
331.741	783.3
332.21	782.8
332.678	785
333.146	781
333.614	780.7
334.082	784.2
334.55	785.3
335.018	781.9
335.486	778.2
335.954	783.3
336.422	784.5
336.89	779.7
337.358	779
337.826	785.6
338.294	780.5
338.762	781.9
339.229	780.7
339.697	781.5
340.165	783.3
340.633	779.6
341.1	782.7
341.568	780.9
342.035	778.9
342.503	780.8
342.971	783
343.438	783.7
343.906	781.5
344.373	782.5
344.841	777.7
345.308	779.6
345.776	780.5
346.243	776.9
346.71	783.5
347.178	783.3
347.645	782.8
348.112	782.6
348.58	781.5
349.047	784.5
349.514	783.2
349.981	783.8
350.448	786.9
350.915	779.6
351.383	783.9
351.85	777.7
352.317	785.5
352.784	782.1
353.251	782.9
353.718	781.5
354.185	787.1
354.651	782.3
355.118	784.8
355.585	781.5
356.052	778.7
356.519	786.2
356.986	786
357.452	788.2
357.919	786.3
358.386	781
358.853	782.4
359.319	783.8
359.786	780.6
360.252	787.4
360.719	782.1
361.185	777.9
361.652	786
362.118	785.5
362.585	787.2
363.051	785.5
363.518	783.6
363.984	786.2
364.451	786.9
364.917	784.3
365.383	791.9
365.849	790.4
366.316	789.2
366.782	791.6
367.248	795.2
367.714	798.8
368.18	796.5
368.647	790.6
369.113	797.1
369.579	799.4
370.045	796.7
370.511	804.6
370.977	801.5
371.443	804.7
371.909	808.7
372.374	809.3
372.84	814
373.306	816
373.772	812.3
374.238	819.7
374.704	824
375.169	825.6
375.635	833.1
376.101	850.8
376.566	874.7
377.032	905.8
377.498	968.9
377.963	1061
378.429	1203.8
378.894	1410.7
379.36	1722.5
379.825	2195.1
380.291	2839.2
380.756	3773
381.222	4915.5
381.687	6255.7
382.152	7858.6
382.618	9440.2
383.083	11003.9
383.548	12131.9
384.013	13007
384.479	13491.4
384.944	13585.3
385.409	13369.1
385.874	13018.5
386.339	12290.7
386.804	11368.7
387.269	10487
387.734	9359.1
388.199	7980.5
388.664	6776.6
389.129	5718
389.594	4756.1
390.059	3908.5
390.524	3320.5
390.989	2713.4
391.453	2241.1
391.918	1877.9
392.383	1594.4
392.848	1379.8
393.312	1229.9
393.777	1111.6
394.242	1023.7
394.706	955.4
395.171	919.5
395.635	887.7
396.1	870.1
396.565	862.1
397.029	856
397.493	847.1
397.958	842.5
398.422	841.2
398.887	836.2
399.351	834.9
399.815	828.3
400.28	826.6
400.744	824.7
401.208	820
401.672	819.5
402.137	815.1
402.601	808.5
403.065	814
403.529	806.2
403.993	812.6
404.457	803.1
404.921	804.3
405.385	807.2
405.849	804.4
406.313	796.3
406.777	798.4
407.241	799.1
407.705	796.4
408.169	791.9
408.632	790.9
409.096	794.5
409.56	788.1
410.024	782.5
410.487	786.8
410.951	786.4
411.415	783.2
411.878	788
412.342	784.8
412.806	786.6
413.269	785.3
413.733	782.2
414.196	783.4
414.66	780.7
415.123	785
415.587	785
416.05	781.7
416.513	783.9
416.977	785.6
417.44	782.8
417.903	786.6
418.366	782.5
418.83	785
419.293	787
419.756	786.2
420.219	781.4
420.682	786.7
421.145	779.1
421.608	782.9
422.072	782.7
422.535	779.3
422.998	782
423.46	777.5
423.923	782.6
424.386	785.9
424.849	779.3
425.312	783.7
425.775	780.5
426.238	781.6
426.7	784.6
427.163	778.7
427.626	782.3
428.089	783.8
428.551	782.2
429.014	781.4
429.477	777.4
429.939	774.1
430.402	782.4
430.864	782
431.327	780.8
431.789	784.8
432.252	781.6
432.714	780.6
433.176	782.7
433.639	778
434.101	783.4
434.563	779.3
435.026	782.2
435.488	782.8
435.95	782.2
436.412	786.5
436.875	782.9
437.337	779.4
437.799	785.9
438.261	784.3
438.723	779.6
439.185	784.6
439.647	775.8
440.109	780.6
440.571	781.1
441.033	780.4
441.495	782.7
441.957	779.4
442.419	783.6
442.881	784.8
443.342	777.4
443.804	776.7
444.266	781.9
444.728	779.7
445.189	781.4
445.651	784.9
446.113	781.4
446.574	785.4
447.036	780.3
447.497	783.9
447.959	783.5
448.421	781.4
448.882	779.2
449.343	777.6
449.805	779.6
450.266	785.3
450.728	782
451.189	780.3
451.65	784.6
452.112	777.2
452.573	784.6
453.034	778.7
453.495	779.4
453.957	780.4
454.418	782.5
454.879	775.7
455.34	781.2
455.801	780.2
456.262	778.5
456.723	777.2
457.184	778.5
457.645	780.4
458.106	782.8
458.567	782.1
459.028	783.6
459.489	786.9
459.95	779.7
460.41	780
460.871	781.3
461.332	785.2
461.793	778.7
462.253	778.3
462.714	783.6
463.175	777.8
463.635	781.9
464.096	779.9
464.556	780.1
465.017	779.6
465.478	775.7
465.938	775.1
466.398	782.9
466.859	780.5
467.319	777.6
467.78	778.7
468.24	776.7
468.7	782.5
469.161	778.2
469.621	781.3
470.081	784.3
470.541	776.2
471.002	774
471.462	780.7
471.922	781.1
472.382	774.8
472.842	780.1
473.302	777.5
473.762	778.3
474.222	783.9
474.682	775.6
475.142	778.3
475.602	775.9
476.062	777.2
476.522	782.8
476.982	777.5
477.442	781.5
477.901	777.8
478.361	776
478.821	785.6
479.281	777.4
479.74	774.8
480.2	780.1
480.659	780.6
481.119	782.2
481.579	778.2
482.038	770.6
482.498	781.7
482.957	777.5
483.417	776.5
483.876	776.3
484.336	779.7
484.795	781.8
485.254	778.1
485.714	777.5
486.173	780.5
486.632	782.4
487.091	777.8
487.551	779.8
488.01	779.3
488.469	777.3
488.928	779.4
489.387	777.9
489.846	777.9
490.305	778.6
490.764	777.1
491.223	783.3
491.682	779
492.141	775.3
492.6	777.1
493.059	778.6
493.518	778.7
493.977	777.8
494.436	775.5
494.895	777.8
495.353	780.1
495.812	772.5
496.271	776.9
496.729	776.7
497.188	780
497.647	782
498.105	780.1
498.564	780.3
499.022	777.6
499.481	775.5
499.939	777.9
500.398	775.4
500.856	776.2
501.315	776.8
501.773	775.8
502.232	780.1
502.69	782.3
503.148	778
503.606	778.9
504.065	775.2
504.523	778.8
504.981	778
505.439	774.1
505.897	778.2
506.356	780.2
506.814	776
507.272	783.3
507.73	774.5
508.188	779.5
508.646	779.1
509.104	781.7
509.562	779
510.02	782.7
510.477	777
510.935	780.1
511.393	780.2
511.851	771.9
512.309	774.4
512.766	776.9
513.224	776.1
513.682	778.7
514.139	776.8
514.597	779.6
515.055	776.2
515.512	776.2
515.97	782.7
516.427	778.3
516.885	778.9
517.342	779.2
517.8	774.1
518.257	775.4
518.714	778.6
519.172	775.5
519.629	777.4
520.086	777.4
520.544	777.1
521.001	774.9
521.458	779.4
521.915	779.8
522.373	778.6
522.83	776.7
523.287	784.4
523.744	778.9
524.201	773.6
524.658	776.4
525.115	780.4
525.572	782.2
526.029	779
526.486	775.5
526.943	780.3
527.4	778.2
527.857	772.5
528.313	775.9
528.77	778.1
529.227	776.9
529.684	778.1
530.14	771.8
530.597	779
531.054	779.2
531.51	774.6
531.967	780.9
532.423	773
532.88	771.4
533.337	781
533.793	776.2
534.25	779.2
534.706	777.6
535.162	771.7
535.619	783.6
536.075	774.9
536.531	775.1
536.988	773.4
537.444	772.9
537.9	784.8
538.356	783.9
538.813	774.5
539.269	779.7
539.725	773.3
540.181	781.6
540.637	773.6
541.093	778.4
541.549	776.5
542.005	775.1
542.461	778.9
542.917	782.6
543.373	777.6
543.829	777.8
544.285	777.1
544.741	777
545.197	781
545.652	775
546.108	775.6
546.564	774.1
547.02	776
547.475	779.2
547.931	774.6
548.387	772.7
548.842	776
549.298	777.7
549.753	777.8
550.209	776.5
550.664	778.6
551.12	775.4
551.575	775.2
552.031	777.3
552.486	774.9
552.941	774.7
553.397	782.3
553.852	778.1
554.307	775.1
554.762	777.7
555.218	776.9
555.673	776.9
556.128	778.6
556.583	776
557.038	775.5
557.493	781.2
557.948	780.1
558.403	770.5
558.858	779.6
559.313	771
559.768	776.1
560.223	772.9
560.678	775.3
561.133	777
561.588	770.9
562.043	776.5
562.497	778.9
562.952	776.2
563.407	776.9
563.862	776.9
564.316	774.4
564.771	777.6
565.226	776.7
565.68	771.4
566.135	778.5
566.589	774.1
567.044	774.1
567.498	776.6
567.953	773.1
568.407	776.7
568.862	775.5
569.316	775.2
569.77	781.5
570.225	774.8
570.679	771.6
571.133	777.3
571.587	771.9
572.042	773.8
572.496	778.1
572.95	775.7
573.404	782.3
573.858	779.8
574.312	776.7
574.766	777.2
575.22	774.2
575.674	777.2
576.128	775.7
576.582	778.7
577.036	779.1
577.49	773.5
577.944	774.9
578.398	777.6
578.852	777.1
579.305	772.5
579.759	778.2
580.213	780.2
580.666	778.2
581.12	774.6
581.574	773.2
582.027	776.1
582.481	779.8
582.935	780.5
583.388	776.3
583.842	773.4
584.295	773.4
584.748	770.7
585.202	775.1
585.655	775.3
586.109	776.9
586.562	773.5
587.015	776.9
587.469	775.2
587.922	773.7
588.375	773
588.828	774
589.281	778.5
589.735	776.6
590.188	770.2
590.641	772.8
591.094	774.8
591.547	778.3
592	776.5
592.453	776.6
592.906	782.8
593.359	772.1
593.812	773.9
594.265	780.9
594.717	775.1
595.17	777.6
595.623	770.9
596.076	770.9
596.529	777.6
596.981	779.2
597.434	773.9
597.887	782.2
598.339	778.9
598.792	773.3
599.245	778.5
599.697	773.5
600.15	779.4
600.602	775
601.055	774.1
601.507	773.6
601.959	771
602.412	775.8
602.864	779.7
603.316	777.5
603.769	773.8
604.221	773.9
604.673	770.6
605.126	775.9
605.578	783.5
606.03	772.2
606.482	776.4
606.934	774.4
607.386	774.1
607.838	775.4
608.29	772.7
608.742	777.4
609.194	779.2
609.646	774.9
610.098	780
610.55	778.3
611.002	776.8
611.454	777.2
611.906	772.5
612.357	774.8
612.809	776.8
613.261	776.7
613.713	780.1
614.164	772.7
614.616	771.6
615.068	780.7
615.519	779.9
615.971	775.2
616.422	778
616.874	769.8
617.325	781.9
617.777	770.7
618.228	770.5
618.68	778.4
619.131	772
619.582	779.5
620.034	776.8
620.485	768.7
620.936	775
621.387	776.1
621.839	776.5
622.29	779.2
622.741	777.2
623.192	776
623.643	777.7
624.094	777.2
624.545	780.5
624.996	774.4
625.447	772.2
625.898	782.5
626.349	777.1
626.8	776.1
627.251	778.4
627.702	775.6
628.153	779.9
628.604	780.2
629.054	773.2
629.505	779.9
629.956	777.6
630.406	773.8
630.857	776.6
631.308	777
631.758	772.7
632.209	770.8
632.66	779.2
633.11	775.1
633.561	775.1
634.011	775.5
634.461	774.3
634.912	775.6
635.362	777.8
635.813	778.2
636.263	773.3
636.713	772.6
637.164	776.3
637.614	772.3
638.064	776.1
638.514	776.9
638.964	779
639.415	776
639.865	773.5
640.315	778.5
640.765	776.9
641.215	772.6
641.665	775.9
642.115	775.6
642.565	770.6
643.015	775.7
643.465	777.5
643.915	776.4
644.364	776.8
644.814	769.3
645.264	777.7
645.714	775.8
646.163	772.2
646.613	775.2
647.063	777.8
647.513	780.8
647.962	778.7
648.412	776
648.861	776.8
649.311	777
649.76	772.7
650.21	777.5
650.659	777.2
651.109	783.1
651.558	774.4
652.008	775.5
652.457	781.1
652.906	774.8
653.356	769.4
653.805	779.8
654.254	775.6
654.703	767.9
655.152	778.4
655.602	770.6
656.051	781.2
656.5	775.7
656.949	776.9
657.398	777
657.847	777.6
658.296	775.2
658.745	771.9
659.194	776
659.643	781
660.092	777.5
660.541	776.5
660.989	776
661.438	777.2
661.887	776.9
662.336	776
662.784	775.9
663.233	778.2
663.682	780.4
664.13	770.7
664.579	775.4
665.028	780.2
665.476	775.9
665.925	777.1
666.373	774.2
666.822	780.8
667.27	774.9
667.719	775.6
668.167	781.4
668.615	777.8
669.064	772.3
669.512	779.9
669.96	777.6
670.408	778.9
670.857	776.3
671.305	778.6
671.753	774.8
672.201	772.6
672.649	774.3
673.097	778.8
673.545	781.9
673.993	779
674.441	776.6
674.889	776
675.337	779.4
675.785	776.6
676.233	774.8
676.681	775.6
677.129	778.3
677.577	773.7
678.025	775.1
678.472	773.5
678.92	774.7
679.368	780.3
679.815	774.7
680.263	778.3
680.711	778.1
681.158	773
681.606	779.7
682.053	770.7
682.501	773.5
682.948	774.7
683.396	776.5
683.843	779.5
684.291	774.8
684.738	772.9
685.185	778.8
685.633	779.4
686.08	776.9
686.527	780.7
686.974	773.2
687.422	777.8
687.869	779.7
688.316	771
688.763	774.1
689.21	775.1
689.657	778.9
690.104	774.5
690.551	775
690.998	779.2
691.445	781.4
691.892	771.7
692.339	775.5
692.786	773.5
693.233	776.1
693.68	780.3
694.127	777.5
694.573	777.2
695.02	782
695.467	776.5
695.913	777.7
696.36	771.8
696.807	773.1
697.253	781
697.7	774.7
698.146	774.4
698.593	772.8
699.039	779.5
699.486	778.4
699.932	779.8
700.379	777.1
700.825	781.4
701.272	778.7
701.718	771.3
702.164	776.8
702.61	776.7
703.057	779.5
703.503	781.4
703.949	778.6
704.395	777.4
704.841	779.1
705.287	778.3
705.734	772.1
706.18	779.5
706.626	779
707.072	778.9
707.518	776.8
707.964	781.7
708.409	781.6
708.855	775.3
709.301	775.4
709.747	775.9
710.193	778.2
710.639	777.7
711.084	777.5
711.53	775.9
711.976	774.5
712.421	774.4
712.867	779.2
713.313	777.7
713.758	775.7
714.204	775.2
714.649	778.1
715.095	776.9
715.54	780.3
715.986	775.8
716.431	779.6
716.877	775.3
717.322	770.6
717.767	780.1
718.213	775.6
718.658	781.1
719.103	781.5
719.548	783.3
719.994	780.7
720.439	778.8
720.884	775
721.329	772.6
721.774	778.3
722.219	779.2
722.664	777
723.109	777.4
723.554	778.1
723.999	776.1
724.444	774.7
724.889	780.9
725.334	777.2
725.779	777.8
726.223	777.9
726.668	774.6
727.113	782.1
727.558	775.7
728.002	775.8
728.447	781.1
728.892	778.2
729.336	777.6
729.781	773.8
730.225	777.5
730.67	782.9
731.114	775.1
731.559	771.9
732.003	779.5
732.448	779.2
732.892	778.1
733.337	776.1
733.781	779.4
734.225	774.9
734.67	777.5
735.114	774.2
735.558	779.7
736.002	775.2
736.446	781.1
736.891	778.8
737.335	775.8
737.779	776.8
738.223	777
738.667	774.1
739.111	778.1
739.555	778.8
739.999	779.1
740.443	775.9
740.887	777
741.33	781.4
741.774	778.8
742.218	775.6
742.662	777.6
743.106	778.3
743.549	775.5
743.993	777.8
744.437	774.6
744.88	776
745.324	778.3
745.768	775.1
746.211	784.4
746.655	779.2
747.098	780.8
747.542	776.9
747.985	777.2
748.429	780.6
748.872	778.4
749.315	776
749.759	774.4
750.202	777.6
750.645	774
751.089	777
751.532	774
751.975	775.8
752.418	774.6
752.861	775.7
753.305	779.7
753.748	779.3
754.191	773.9
754.634	779.4
755.077	779.6
755.52	776.8
755.963	775.9
756.406	775.7
756.849	778.6
757.291	778.5
757.734	771.9
758.177	776.9
758.62	776.3
759.063	779
759.505	779.1
759.948	776.1
760.391	778.2
760.833	781
761.276	775.3
761.719	776.2
762.161	779.2
762.604	780.3
763.046	777
763.489	777.7
763.931	772.8
764.374	779.3
764.816	780.9
765.258	784.8
765.701	781.2
766.143	774.2
766.585	778.6
767.028	780.2
767.47	774.6
767.912	781.9
768.354	773.6
768.796	775.1
769.238	775.9
769.681	774.9
770.123	779.8
770.565	780.5
771.007	777
771.449	780.3
771.891	775.5
772.333	774.2
772.774	776.8
773.216	777.8
773.658	777
774.1	775
774.542	778.5
774.984	777.6
775.425	779.3
775.867	776.3
776.309	772.8
776.75	775
777.192	778.6
777.634	778
778.075	782
778.517	778.4
778.958	772.2
779.4	777.5
779.841	777
780.283	775.2
780.724	780.1
781.165	776.1
781.607	777.2
782.048	780.1
782.489	780.6
782.931	775.7
783.372	784
783.813	779.4
784.254	772.5
784.695	781.1
785.136	774.4
785.578	776.9
786.019	776.2
786.46	774.3
786.901	777.5
787.342	779.2
787.783	780.6
788.224	781.1
788.664	777.6
789.105	784.1
789.546	777.1
789.987	778.1
790.428	774
790.869	777.7
791.309	776.6
791.75	778.9
792.191	777.5
792.631	783.5
793.072	775.7
793.513	779.8
793.953	782.3
794.394	776
794.834	779.9
795.275	777.1
795.715	775.9
796.156	781.4
796.596	773.8
797.036	776.9
797.477	779.7
797.917	778.9
798.357	779.9
798.798	778.5
799.238	776.4
799.678	782.5
800.118	779
800.558	774.9
800.998	780.6
801.439	776.2
801.879	777.9
802.319	780.4
802.759	776.3
803.199	777
803.639	776.6
804.079	776.8
804.518	775.4
804.958	779.8
805.398	776.8
805.838	784.7
806.278	778.4
806.718	778.6
807.157	776.2
807.597	776.8
808.037	787.5
808.476	776.2
808.916	772.8
809.356	781.2
809.795	780.2
810.235	779.3
810.674	773.4
811.114	775.3
811.553	780.5
811.993	782.3
812.432	777.4
812.871	777
813.311	773.7
813.75	781.8
814.189	776.4
814.629	779.9
815.068	779.6
815.507	778.7
815.946	776.3
816.385	776.6
816.824	779.7
817.263	781.9
817.703	780.5
818.142	777.8
818.581	778.1
819.02	773.7
819.459	772.9
819.897	781.9
820.336	778.1
820.775	776.6
821.214	779.9
821.653	778.6
822.092	778
822.53	780.5
822.969	773.7
823.408	778.9
823.847	778.8
824.285	778.1
824.724	775.3
825.162	776.4
825.601	779.2
826.04	782.4
826.478	776.2
826.916	783.1
827.355	779.5
827.793	778
828.232	774.5
828.67	772.9
829.108	778.7
829.547	777.3
829.985	783.5
830.423	779.3
830.862	775.1
831.3	774
831.738	781.9
832.176	779.9
832.614	777.8
833.052	778.7
833.49	777.9
833.928	779.5
834.366	781.4
834.804	776.1
835.242	780.8
835.68	781.6
836.118	774
836.556	776.6
836.994	777.3
837.432	778.7
837.869	777.1
838.307	772.2
838.745	781.4
839.183	780.1
839.62	777.4
840.058	775.8
840.496	776.8
840.933	781
841.371	783.9
841.808	773.3
842.246	777.7
842.683	779
843.121	776.7
843.558	781.8
843.995	776.3
844.433	780.5
844.87	775.8
845.307	780.4
845.745	779.8
846.182	779.5
846.619	782.9
847.056	775.5
847.494	778.6
847.931	781.3
848.368	775.1
848.805	778
849.242	778.5
849.679	777.9
850.116	778.5
850.553	781.6
850.99	777.3
851.427	779.1
851.864	779.4
852.301	782.8
852.737	783.2
853.174	777.7
853.611	776.3
854.048	786.2
854.484	776.9
854.921	777.8
855.358	776
855.794	776.3
856.231	782.9
856.668	778
857.104	774.4
857.541	782.5
857.977	779.2
858.414	773.4
858.85	780.4
859.286	777.1
859.723	775.6
860.159	775.9
860.596	775.7
861.032	779
861.468	782.7
861.904	773.6
862.341	778.8
862.777	773.1
863.213	773.6
863.649	774.6
864.085	781
864.521	782.2
864.957	780.7
865.393	779.5
865.829	778.6
866.265	780
866.701	780.4
867.137	781.2
867.573	779.2
868.009	779.5
868.445	786.9
868.88	773.9
869.316	778.2
869.752	780.3
870.188	775.9
870.623	781.4
871.059	772.3
871.495	781.8
871.93	780.5
872.366	777.1
872.801	784.4
873.237	777.5
873.672	778.4
874.108	781.3
874.543	775.7
874.979	778.3
875.414	779.8
875.849	781.3
876.285	773.4
876.72	776.2
877.155	778.4
877.59	783.8
878.026	776.2
878.461	778.2
878.896	775.3
879.331	776.8
879.766	776.8
880.201	780.5
880.636	774.6
881.071	777.3
881.506	777.5
881.941	780.1
882.376	774.9
882.811	778.9
883.246	781.1
883.681	777.7
884.116	773.4
884.55	777.4
884.985	780.6
885.42	777.4
885.855	776.5
886.289	779.2
886.724	785.2
887.159	780.7
887.593	775
888.028	779
888.462	773.5
888.897	775.7
889.331	777.6
889.766	772.7
890.2	780.2
890.634	782.8
891.069	781.2
891.503	780
891.937	779.5
892.372	774.7
892.806	777.7
893.24	781.2
893.674	778.7
894.109	779.5
894.543	778
894.977	781.8
895.411	784.5
895.845	777.3
896.279	776.5
896.713	778.7
897.147	779.4
897.581	784.1
898.015	775
898.449	780.4
898.883	777.9
899.316	777.1
899.75	781.5
900.184	776.5
900.618	779.6
901.051	780.3
901.485	774.2
901.919	780.8
902.352	774.5
902.786	774.6
903.22	774
903.653	770.9
904.087	777.9
904.52	777.1
904.954	776.3
905.387	777
905.82	777.3
906.254	779
906.687	777.3
907.121	779.4
907.554	778.5
907.987	775.3
908.42	778.6
908.854	776.4
909.287	775
909.72	775.1
910.153	779.4
910.586	774.9
911.019	773.5
911.452	777.9
911.885	783.3
912.318	780.4
912.751	779.1
913.184	779.2
913.617	781.4
914.05	778.5
914.483	780
914.916	779.1
915.348	777.6
915.781	777.2
916.214	782
916.647	777.1
917.079	777.6
917.512	781.6
917.944	776.7
918.377	781.9
918.81	778.3
919.242	772.7
919.675	782.1
920.107	781.7
920.54	780.4
920.972	775.8
921.404	776.2
921.837	781.5
922.269	778.3
922.701	774.9
923.134	780.3
923.566	778.1
923.998	781.6
924.43	774.1
924.863	775.1
925.295	781.1
925.727	781.9
926.159	773.7
926.591	779.5
927.023	772.9
927.455	773.8
927.887	776.9
928.319	778.8
928.751	779.8
929.183	779.7
929.615	775.5
930.046	780.3
930.478	773.7
930.91	782.9
931.342	780.6
931.773	780.3
932.205	780
932.637	776.9
933.068	773.8
933.5	778.8
933.932	779.5
934.363	778.1
934.795	780.6
935.226	778.5
935.658	778.7
936.089	775.9
936.521	773.9
936.952	780.8
937.383	775.1
937.815	777.2
938.246	778.9
938.677	773.7
939.108	777.2
939.54	782
939.971	775.9
940.402	779
940.833	777
941.264	773.5
941.695	779
942.126	778.4
942.557	776.1
942.988	777.5
943.419	775.5
943.85	778.5
944.281	780.2
944.712	772.8
945.143	782.3
945.574	778.1
946.004	775
946.435	779.3
946.866	778.2
947.297	778.2
947.727	779
948.158	775.8
948.588	780.3
949.019	775
949.45	771.8
949.88	784.9
950.311	777.5
950.741	779.8
951.172	777.6
951.602	777.3
952.032	777.8
952.463	779.6
952.893	773.8
953.323	777.7
953.754	780
954.184	780.3
954.614	774.1
955.044	773
955.475	775.6
955.905	776.7
956.335	780.8
956.765	782.3
957.195	774.4
957.625	782.6
958.055	776.7
958.485	778.6
958.915	782.5
959.345	776.8
959.775	777.8
960.204	781.8
960.634	779.6
961.064	779.9
961.494	777.3
961.924	779.5
962.353	779.2
962.783	780.9
963.213	776.2
963.642	780.1
964.072	776.8
964.501	777.4
964.931	780
965.361	774.6
965.79	775.6
966.219	775.9
966.649	775.8
967.078	780.9
967.508	776.6
967.937	771.3
968.366	779.3
968.796	777.6
969.225	775.5
969.654	779.1
970.083	777.6
970.513	773.6
970.942	776.2
971.371	775.5
971.8	775
972.229	773.4
972.658	778.2
973.087	778.5
973.516	775.2
973.945	778.6
974.374	773.1
974.803	777
975.232	778.2
975.66	775.1
976.089	774.6
976.518	779.6
976.947	773.7
977.375	779.6
977.804	773
978.233	775
978.661	783.2
979.09	776.6
979.519	776.5
979.947	778.3
980.376	775
980.804	775.8
981.233	780.4
981.661	783
982.09	781.1
982.518	776.5
982.946	780.3
983.375	777.5
983.803	779.4
984.231	779.7
984.659	774
985.088	775.7
985.516	781.3
985.944	775
986.372	777.8
986.8	778.3
987.228	773.2
987.656	771.3
988.084	777.1
988.512	776.9
988.94	779.8
989.368	779.5
989.796	774.3
990.224	781.1
990.652	777.7
991.08	775.2
991.507	776
991.935	777.6
992.363	779.3
992.791	776.8
993.218	774.6
993.646	783
994.074	774.4
994.501	776.8
994.929	776.8
995.356	771.3
995.784	775.5
996.211	774.8
996.639	774.6
997.066	780.1
997.493	774.4
997.921	778.6
998.348	777.8
998.775	778.1
999.203	779.7
999.63	777.9
1000.057	777.5
1000.484	782.3
1000.912	776.8
1001.339	776.5
1001.766	782.9
1002.193	779.4
1002.62	777.1
1003.047	776.6
1003.474	772.8
1003.901	780
1004.328	777.1
1004.755	778.7
1005.182	779.7
1005.608	772.5
1006.035	775.2
1006.462	777
1006.889	781.3
1007.316	780.1
1007.742	775.8
1008.169	772.7
1008.596	778.4
1009.022	774.8
1009.449	780.7
1009.875	780.2
1010.302	777.3
1010.728	778.9
1011.155	779.4
1011.581	776.2
1012.008	780.3
1012.434	773.9
1012.861	776.3
1013.287	779.1
1013.713	775.6
1014.139	781.2
1014.566	784
1014.992	773.8
1015.418	778
1015.844	772
1016.27	778.2
1016.697	779.7
1017.123	771.5
1017.549	778.1
1017.975	773.8
1018.401	777.2
1018.827	775.6
1019.253	777.1
1019.679	775
1020.104	781.8
1020.53	775.9
1020.956	778.8
1021.382	772.1
1021.808	778.9
1022.233	781
1022.659	776.5
1023.085	772.2
1023.51	781.1
1023.936	777.2
1024.362	781.9
1024.787	772.1
1025.213	771.3
1025.638	782
1026.064	781.3
1026.489	777.2
1026.915	780
1027.34	777.6
1027.765	772.6
1028.191	778.3
1028.616	778
1029.041	773.5
1029.467	777.9
1029.892	778
1030.317	776
1030.742	772.8
1031.167	777.2
1031.592	780.6
1032.018	777
1032.443	777.2
1032.868	777.2
1033.293	776
1033.718	775.7
1034.143	777.2
1034.567	771.6
1034.992	781.8
1035.417	774.2
1035.842	779.1
1036.267	776.4
1036.692	780.4
1037.116	779.8
1037.541	774.8
1037.966	772.9
1038.39	781.1
1038.815	779.4
1039.24	778.5
1039.664	775.9
1040.089	776.3
1040.513	774.8
1040.938	779
1041.362	773.4
1041.787	781
1042.211	775.2
1042.635	775.1
1043.06	781.5
1043.484	775.3
1043.908	781.6
1044.333	778.9
1044.757	771.5
1045.181	776
1045.605	776.8
1046.029	776.7
1046.454	776
1046.878	776.9
1047.302	774.3
1047.726	779.1
1048.15	778.3
1048.574	777.4
1048.998	779.1
1049.422	777.2
1049.845	778.5
1050.269	778.4
1050.693	775.4
1051.117	774.2
1051.541	780.6
1051.964	778.1
1052.388	774.6
1052.812	777.2
1053.235	781.8
1053.659	777.3
1054.083	778
1054.506	773.3
1054.93	775.2
1055.353	780.5
1055.777	777
1056.2	774.5
1056.624	773.4
1057.047	779.5
1057.471	777
1057.894	777.2
1058.317	776.4
1058.74	775.5
1059.164	774.6
1059.587	774.3
1060.01	777.9
1060.433	774.7
1060.856	774.4
1061.28	774.6
1061.703	775.9
1062.126	778
1062.549	777.5
1062.972	780.6
1063.395	780.6
1063.818	776.4
1064.241	778
1064.663	779.7
1065.086	774
1065.509	776.3
1065.932	774.4
1066.355	776.5
1066.777	779.3
1067.2	775.4
1067.623	772.9
1068.046	776.2
1068.468	775
1068.891	774
1069.313	777.1
1069.736	773.6
1070.158	778.7
1070.581	773.8
1071.003	774.5
1071.426	778.4
1071.848	780.5
1072.271	778
1072.693	777.2
1073.115	775.9
1073.538	780.1
1073.96	779.8
1074.382	773.4
1074.804	776.2
1075.226	776
1075.649	777.2
1076.071	777.5
1076.493	778.9
1076.915	775.3
1077.337	777
1077.759	782.7
1078.181	778.2
1078.603	776.6
1079.025	776.2
1079.447	781.8
1079.868	777.6
1080.29	774.4
1080.712	778.9
1081.134	781.1
1081.556	782.1
1081.977	777.7
1082.399	775.7
1082.821	778.1
1083.242	777.6
1083.664	774.5
1084.085	778.4
1084.507	782.8
1084.928	777.4
1085.35	776.4
1085.771	770.3
1086.193	777.8
1086.614	779
1087.036	781.8
1087.457	779.2
1087.878	774.9
1088.3	777.9
1088.721	781.3
1089.142	776.3
1089.563	775.6
1089.984	772.2
1090.406	775.8
1090.827	776.4
1091.248	774.9
1091.669	776.8
1092.09	772.7
1092.511	776.8
1092.932	776
1093.353	775.9
1093.774	768.1
1094.195	773.5
1094.615	772.1
1095.036	779.3
1095.457	781.5
1095.878	776
1096.299	776.8
1096.719	778.9
1097.14	769.6
1097.561	777.8
1097.981	777.9
1098.402	773.5
1098.822	778.4
1099.243	773
1099.663	779.7
1100.084	776.6
1100.504	774.4
1100.925	776.5
1101.345	778.2
1101.766	778.2
1102.186	779.3
1102.606	779.4
1103.026	778
1103.447	776.4
1103.867	770.4
1104.287	776.5
1104.707	772.8
