节点UV_HRD08281_00014.txt的数据
Date: Wed Jan 15 10:35:39 CST 2020
User: lab329
Spectrometer: HR+D0828
触发模式: 0
积分时间 (秒): 4.000000E-3
Scans to average: 10
启用暗噪声校正: false
启用非线性校正: false
滑动平均宽度: 0
X轴模式: Wavelengths
Number of Pixels in Spectrum: 2048
>>>>>Begin Spectral Data<<<<<
186.281	785.2
186.758	785.2
187.234	785.2
187.71	771.9
188.187	781.1
188.663	776.8
189.139	779.6
189.615	782.3
190.091	771.4
190.567	787.2
191.043	787.5
191.519	778.7
191.995	781.9
192.471	788.2
192.947	782.6
193.423	785
193.899	779.2
194.375	782
194.851	784.7
195.327	776
195.803	779.5
196.278	786.8
196.754	780.9
197.23	783.4
197.706	773.9
198.181	783.3
198.657	783.2
199.133	774.6
199.608	780.9
200.084	790.8
200.559	778.3
201.035	783.1
201.51	781.6
201.986	785.8
202.461	785.4
202.937	776
203.412	777.7
203.887	785.5
204.363	776.6
204.838	775.6
205.313	775.5
205.789	782.2
206.264	780.7
206.739	769.6
207.214	775.5
207.689	790.4
208.165	776.2
208.64	776.7
209.115	780
209.59	781.2
210.065	780.8
210.54	770.7
211.015	775.4
211.49	781.4
211.965	775
212.44	777.9
212.914	782
213.389	778.9
213.864	782.2
214.339	768.5
214.814	782.5
215.288	784.8
215.763	771.7
216.238	774.6
216.712	787.2
217.187	779.2
217.662	781
218.136	775.3
218.611	778.2
219.085	782.9
219.56	772.7
220.034	773.6
220.509	783.6
220.983	771.2
221.458	781.9
221.932	775.2
222.406	782.1
222.881	782.2
223.355	769.8
223.829	777.9
224.303	787.1
224.778	776.4
225.252	777.8
225.726	785.5
226.2	783.7
226.674	774.7
227.148	772
227.622	776
228.096	783.1
228.57	772.8
229.044	780.3
229.518	778.2
229.992	779
230.466	791
230.94	778.1
231.414	781.2
231.888	786
232.361	773.3
232.835	776.4
233.309	782.8
233.783	773.2
234.256	785.6
234.73	771.8
235.204	780.4
235.677	785.4
236.151	775
236.624	772.9
237.098	784.3
237.571	777.7
238.045	780.9
238.518	776.1
238.992	782.1
239.465	784.5
239.939	776.5
240.412	777.7
240.885	785.7
241.359	770.8
241.832	782.2
242.305	779.8
242.778	777.8
243.251	781
243.725	776.5
244.198	779.4
244.671	786.9
245.144	777.9
245.617	782.2
246.09	786.3
246.563	778.8
247.036	784.1
247.509	775.9
247.982	785.4
248.455	786.2
248.928	775.8
249.4	778.4
249.873	784
250.346	778.4
250.819	785.1
251.292	772.8
251.764	788.3
252.237	787.4
252.71	773.8
253.182	777.2
253.655	790.4
254.127	777.2
254.6	783.7
255.073	780
255.545	781
256.018	787.2
256.49	770.2
256.962	773.7
257.435	785.2
257.907	777.9
258.379	778.7
258.852	786.1
259.324	777.5
259.796	785.3
260.269	772.6
260.741	777.7
261.213	785.5
261.685	772.8
262.157	777.6
262.629	785.7
263.101	787.5
263.574	779.4
264.046	770.1
264.518	779
264.99	785.8
265.461	776.3
265.933	773.4
266.405	789.4
266.877	774.4
267.349	781.1
267.821	777.9
268.293	785.4
268.764	784.4
269.236	770.6
269.708	778.1
270.18	786.8
270.651	776.9
271.123	783.6
271.594	773.6
272.066	784.7
272.538	787.5
273.009	772.2
273.481	780.2
273.952	786.2
274.423	781.2
274.895	782.3
275.366	781.5
275.838	785.8
276.309	784.1
276.78	772.3
277.252	776.3
277.723	783.8
278.194	778.1
278.665	773.6
279.136	783.5
279.608	785.4
280.079	783.7
280.55	772.5
281.021	778.5
281.492	790.1
281.963	776.3
282.434	777.1
282.905	783.4
283.376	782.2
283.847	785
284.318	772.3
284.789	787.7
285.259	789.2
285.73	773.8
286.201	780.9
286.672	785.2
287.143	773.6
287.613	779.4
288.084	783.5
288.555	781
289.025	788.4
289.496	774
289.966	781.9
290.437	792
290.907	780.9
291.378	783.1
291.848	781.7
292.319	782.4
292.789	787.2
293.26	776
293.73	781.4
294.2	785.8
294.671	778.5
295.141	778.5
295.611	785.3
296.081	784.3
296.552	784.7
297.022	777.1
297.492	780.7
297.962	788.9
298.432	775.5
298.902	780.6
299.372	786.5
299.842	778.8
300.312	785.7
300.782	774.1
301.252	780.6
301.722	787.1
302.192	776
302.662	783
303.132	785.2
303.602	775
304.071	779
304.541	777.6
305.011	781.4
305.481	785.2
305.95	765.7
306.42	778.4
306.889	786.7
307.359	777.7
307.829	781
308.298	781.8
308.768	786.7
309.237	789.7
309.707	773.8
310.176	778.5
310.645	786.8
311.115	780
311.584	777.9
312.054	782.5
312.523	780.7
312.992	785.4
313.461	772.3
313.931	780.2
314.4	788.4
314.869	773.4
315.338	777.8
315.807	785.5
316.276	787
316.745	781.6
317.214	781
317.683	786.1
318.152	789.7
318.621	777.9
319.09	778.3
319.559	790.6
320.028	778.5
320.497	781.9
320.966	778.9
321.435	782.8
321.903	787.1
322.372	773.2
322.841	781
323.31	788.8
323.778	784.1
324.247	780.8
324.715	780.4
325.184	781.3
325.653	785.7
326.121	771.7
326.59	779
327.058	783.8
327.527	777.7
327.995	781.1
328.463	782.1
328.932	781.5
329.4	784.8
329.868	774.5
330.337	781.3
330.805	786.4
331.273	775.7
331.741	781.5
332.21	784.2
332.678	781.6
333.146	778.9
333.614	778.2
334.082	784.1
334.55	784.9
335.018	776.2
335.486	783.3
335.954	785.8
336.422	781.5
336.89	781.4
337.358	776.8
337.826	781.1
338.294	785.2
338.762	770.7
339.229	783.5
339.697	789.7
340.165	782.6
340.633	778.8
341.1	785.5
341.568	787.2
342.035	789.7
342.503	777.4
342.971	777.8
343.438	786.9
343.906	771.6
344.373	782.2
344.841	789.6
345.308	782.3
345.776	779.5
346.243	775
346.71	787.5
347.178	790.5
347.645	776
348.112	779.2
348.58	787
349.047	787.5
349.514	786.2
349.981	775.4
350.448	779.8
350.915	788.3
351.383	777.5
351.85	782.8
352.317	787.4
352.784	783.6
353.251	785.2
353.718	778.3
354.185	785.3
354.651	784.1
355.118	773
355.585	780.6
356.052	785.6
356.519	778.2
356.986	786.1
357.452	779.6
357.919	781.9
358.386	784.7
358.853	776.6
359.319	782.9
359.786	792.7
360.252	779.6
360.719	780
361.185	783.3
361.652	781.5
362.118	788.6
362.585	775.5
363.051	781.3
363.518	784.7
363.984	776.7
364.451	780.8
364.917	786.5
365.383	786
365.849	783.1
366.316	777.8
366.782	785.3
367.248	790.1
367.714	776.9
368.18	782
368.647	790.3
369.113	780.3
369.579	784.1
370.045	781.9
370.511	787.2
370.977	783
371.443	772.4
371.909	777.5
372.374	791.8
372.84	782.1
373.306	778
373.772	779.4
374.238	786.8
374.704	787.8
375.169	773.6
375.635	774.2
376.101	794
376.566	776.4
377.032	784
377.498	786.6
377.963	786.3
378.429	783
378.894	778.5
379.36	782.1
379.825	788.6
380.291	779.6
380.756	780.2
381.222	795.9
381.687	788.1
382.152	785.4
382.618	777.2
383.083	781.2
383.548	784.1
384.013	776.4
384.479	781
384.944	790.1
385.409	782.1
385.874	784.6
386.339	780.7
386.804	783.1
387.269	792.7
387.734	776
388.199	779.9
388.664	793.2
389.129	783.3
389.594	785.4
390.059	779.7
390.524	786.3
390.989	788.2
391.453	778.8
391.918	780.5
392.383	797.2
392.848	787.3
393.312	790.2
393.777	795
394.242	793.4
394.706	788.8
395.171	787.4
395.635	789.7
396.1	797.8
396.565	789.1
397.029	794.3
397.493	804.4
397.958	800.3
398.422	803.6
398.887	793.1
399.351	810
399.815	813.1
400.28	801.9
400.744	803.6
401.208	823.9
401.672	814.4
402.137	830.4
402.601	839.1
403.065	857.6
403.529	880.7
403.993	897.8
404.457	956.3
404.921	1032.2
405.385	1107.7
405.849	1242.4
406.313	1406.5
406.777	1644.3
407.241	1958.1
407.705	2340.7
408.169	2851.4
408.632	3471.9
409.096	4155.9
409.56	5008.5
410.024	5801.7
410.487	6620.8
410.951	7502.6
411.415	8538.2
411.878	9570.2
412.342	10541.8
412.806	11291.7
413.269	11934.4
413.733	12484.7
414.196	12881.9
414.66	13148.2
415.123	12988.7
415.587	12518.1
416.05	12121.9
416.513	11477
416.977	10626.1
417.44	9724.9
417.903	8834.7
418.366	7834.5
418.83	6964.6
419.293	6255.4
419.756	5659.3
420.219	4950.9
420.682	4292.2
421.145	3685
421.608	3185.7
422.072	2715.8
422.535	2326.6
422.998	2048.3
423.46	1778.5
423.923	1565.2
424.386	1412.2
424.849	1288.8
425.312	1182.6
425.775	1097.2
426.238	1043
426.7	991.1
427.163	953.9
427.626	909.1
428.089	900
428.551	884.9
429.014	856.3
429.477	854.6
429.939	849.8
430.402	843.9
430.864	837.4
431.327	825.8
431.789	835.2
432.252	831.9
432.714	819.6
433.176	823.7
433.639	821
434.101	815.9
434.563	819
435.026	807.4
435.488	813.5
435.95	817.8
436.412	800.7
436.875	802.5
437.337	810.8
437.799	795.8
438.261	797.2
438.723	794.2
439.185	795.6
439.647	804.1
440.109	787.3
440.571	793.3
441.033	795.6
441.495	789.2
441.957	790.6
442.419	792.2
442.881	790
443.342	791.4
443.804	778.2
444.266	784.8
444.728	794.1
445.189	779.7
445.651	789
446.113	790.3
446.574	785
447.036	784.9
447.497	776.5
447.959	786.7
448.421	788.5
448.882	776.5
449.343	783.6
449.805	792
450.266	784.8
450.728	784.9
451.189	783.8
451.65	781.2
452.112	791.3
452.573	775.3
453.034	781
453.495	790.8
453.957	781.9
454.418	785.6
454.879	779.8
455.34	783.6
455.801	791.9
456.262	775.1
456.723	781
457.184	788.5
457.645	780.5
458.106	784.9
458.567	785.4
459.028	782.9
459.489	780.8
459.95	772
460.41	783.6
460.871	791.8
461.332	776.5
461.793	784.3
462.253	785.3
462.714	785.4
463.175	781.5
463.635	771
464.096	782.9
464.556	787.4
465.017	779
465.478	777.1
465.938	787.6
466.398	784.4
466.859	781.2
467.319	775.4
467.78	788.9
468.24	783.3
468.7	775.9
469.161	780.7
469.621	792.8
470.081	778.4
470.541	786.8
471.002	781.9
471.462	786.9
471.922	788.2
472.382	779
472.842	784.1
473.302	790.3
473.762	782.4
474.222	775.4
474.682	782.2
475.142	785.7
475.602	784.5
476.062	771.5
476.522	781.8
476.982	788.5
477.442	774.7
477.901	776.3
478.361	788.3
478.821	785.8
479.281	789.6
479.74	775
480.2	778.9
480.659	788.1
481.119	775.6
481.579	784.6
482.038	787.1
482.498	780.4
482.957	778
483.417	772.2
483.876	781.6
484.336	784.5
484.795	777.9
485.254	777.9
485.714	786
486.173	775.9
486.632	785.9
487.091	777.5
487.551	779.9
488.01	780.6
488.469	774.7
488.928	779.1
489.387	785.8
489.846	775.8
490.305	775.7
490.764	778.3
491.223	783.6
491.682	776.2
492.141	769.9
492.6	774.9
493.059	783.9
493.518	778.6
493.977	780.3
494.436	784.4
494.895	780.6
495.353	784.1
495.812	773.6
496.271	778.4
496.729	782.9
497.188	772.8
497.647	775.4
498.105	786
498.564	778.6
499.022	782.5
499.481	768.7
499.939	782.4
500.398	783.6
500.856	773.7
501.315	775.4
501.773	781.5
502.232	776.4
502.69	782.4
503.148	779.1
503.606	781.8
504.065	781.5
504.523	773
504.981	774.7
505.439	784.2
505.897	777
506.356	780.2
506.814	778.5
507.272	778.1
507.73	784.4
508.188	768.1
508.646	779.1
509.104	783.3
509.562	780.3
510.02	780.1
510.477	779.3
510.935	777.9
511.393	786.2
511.851	771.4
512.309	778.4
512.766	783.9
513.224	773.3
513.682	778.5
514.139	782.1
514.597	782.1
515.055	778.5
515.512	770.5
515.97	777.9
516.427	778.9
516.885	772.7
517.342	779.3
517.8	783.1
518.257	774.1
518.714	777
519.172	777.1
519.629	783.3
520.086	781.7
520.544	770.7
521.001	776.5
521.458	787.4
521.915	774.7
522.373	777.5
522.83	776.6
523.287	776.1
523.744	783.7
524.201	771.8
524.658	777.5
525.115	783.8
525.572	772.1
526.029	779.6
526.486	780.7
526.943	779.9
527.4	781.1
527.857	773
528.313	776.1
528.77	778.4
529.227	770.7
529.684	774.2
530.14	781.6
530.597	777.8
531.054	786.3
531.51	778.2
531.967	775.3
532.423	782.6
532.88	769.3
533.337	778.8
533.793	780.7
534.25	779
534.706	781.4
535.162	775.3
535.619	778.1
536.075	784.4
536.531	771.7
536.988	777.3
537.444	779.4
537.9	775.5
538.356	780.5
538.813	780.8
539.269	779.3
539.725	781.6
540.181	772.2
540.637	773
541.093	781.2
541.549	768.2
542.005	777.7
542.461	774.4
542.917	779.4
543.373	777.4
543.829	766.3
544.285	779.1
544.741	782.6
545.197	770.7
545.652	776.9
546.108	781.4
546.564	780.4
547.02	780.1
547.475	773.1
547.931	773.8
548.387	782
548.842	770.2
549.298	776.5
549.753	780.7
550.209	774.9
550.664	783.8
551.12	771.3
551.575	782.3
552.031	782.6
552.486	768.2
552.941	777.1
553.397	786.7
553.852	775
554.307	782.7
554.762	773.8
555.218	779.9
555.673	778.8
556.128	772
556.583	772.6
557.038	784.8
557.493	768.7
557.948	778.1
558.403	776.6
558.858	776
559.313	779
559.768	771.4
560.223	777.8
560.678	788.5
561.133	772.4
561.588	772.6
562.043	782
562.497	774.6
562.952	779.1
563.407	773.8
563.862	772
564.316	786.1
564.771	773.1
565.226	775.2
565.68	784.3
566.135	771.8
566.589	777.8
567.044	777.8
567.498	778.8
567.953	777.3
568.407	771.2
568.862	772.4
569.316	787.1
569.77	774.8
570.225	774.8
570.679	776.5
571.133	781.3
571.587	781.6
572.042	767.7
572.496	777.7
572.95	783.1
573.404	773.3
573.858	778.5
574.312	777.2
574.766	777.3
575.22	780.4
575.674	769.2
576.128	778.7
576.582	781.3
577.036	769.9
577.49	774
577.944	779.5
578.398	780
578.852	775.3
579.305	769.4
579.759	776.9
580.213	783.4
580.666	769.8
581.12	774
581.574	780.7
582.027	775.2
582.481	777.2
582.935	771.6
583.388	778.3
583.842	779.5
584.295	767.3
584.748	771.2
585.202	788.1
585.655	775.4
586.109	781.8
586.562	774.2
587.015	775.7
587.469	782.5
587.922	766.2
588.375	778.7
588.828	782.4
589.281	768
589.735	776.1
590.188	775.3
590.641	779.5
591.094	780.4
591.547	765.3
592	777.5
592.453	783.5
592.906	771.4
593.359	773.7
593.812	778.4
594.265	778.2
594.717	776.1
595.17	771.8
595.623	776.2
596.076	776.9
596.529	777.5
596.981	772.7
597.434	778.7
597.887	778
598.339	777.3
598.792	769.4
599.245	778.9
599.697	783.3
600.15	770.6
600.602	774.7
601.055	781.6
601.507	774.1
601.959	778.2
602.412	775.4
602.864	777.6
603.316	782.4
603.769	768.8
604.221	774.5
604.673	780.4
605.126	776.8
605.578	776.9
606.03	777.4
606.482	779.8
606.934	775.8
607.386	765.4
607.838	771.9
608.29	785.4
608.742	772.6
609.194	777.2
609.646	783.3
610.098	775.7
610.55	774.1
611.002	767.9
611.454	776.4
611.906	785.8
612.357	765.5
612.809	778.1
613.261	779
613.713	776.1
614.164	778.3
614.616	770.4
615.068	779.4
615.519	776.6
615.971	773.9
616.422	776.4
616.874	782.7
617.325	772.5
617.777	779.7
618.228	771.6
618.68	782.4
619.131	775.3
619.582	765.5
620.034	779.2
620.485	785.9
620.936	770.4
621.387	770.3
621.839	775
622.29	778.6
622.741	785.4
623.192	768.2
623.643	774.6
624.094	786.3
624.545	771.8
624.996	773.4
625.447	775
625.898	775.8
626.349	778.1
626.8	767.3
627.251	779.1
627.702	785.8
628.153	773.9
628.604	775.9
629.054	779.9
629.505	780.1
629.956	781.2
630.406	773.6
630.857	777.3
631.308	783.7
631.758	773.4
632.209	772.4
632.66	783.3
633.11	774.8
633.561	779.5
634.011	776.6
634.461	778
634.912	781.6
635.362	769.6
635.813	774.4
636.263	785.8
636.713	770.8
637.164	775.9
637.614	778.6
638.064	780.5
638.514	780
638.964	770.3
639.415	777.9
639.865	786.7
640.315	775.1
640.765	777.9
641.215	778.5
641.665	780.5
642.115	779.4
642.565	770.3
643.015	776
643.465	787.9
643.915	769.6
644.364	777.4
644.814	778.9
645.264	779.6
645.714	778.3
646.163	769.9
646.613	783
647.063	782.2
647.513	769.2
647.962	775
648.412	781.3
648.861	768.1
649.311	774.8
649.76	778.9
650.21	780.3
650.659	780.5
651.109	773
651.558	775.4
652.008	783.3
652.457	773.6
652.906	775.8
653.356	773.3
653.805	778.3
654.254	775.4
654.703	769.4
655.152	778.2
655.602	784.7
656.051	771
656.5	777.5
656.949	787.8
657.398	776.1
657.847	778.5
658.296	767.2
658.745	778.2
659.194	777.7
659.643	769.2
660.092	772.6
660.541	783.4
660.989	779.5
661.438	773.2
661.887	770.7
662.336	778.4
662.784	782.2
663.233	767.8
663.682	776.3
664.13	788.6
664.579	770.6
665.028	778.8
665.476	777.2
665.925	779
666.373	784.9
666.822	770
667.27	769.6
667.719	789
668.167	771.4
668.615	779.7
669.064	768.5
669.512	776.4
669.96	778.6
670.408	769.2
670.857	776.5
671.305	790.7
671.753	775.2
672.201	781.9
672.649	774.7
673.097	777.7
673.545	777.8
673.993	773.8
674.441	783.1
674.889	788.2
675.337	770.1
675.785	777
676.233	782.4
676.681	772.8
677.129	778.5
677.577	769.9
678.025	776.2
678.472	785.4
678.92	775.6
679.368	769.6
679.815	784.7
680.263	774.5
680.711	780.3
681.158	772.9
681.606	778.9
682.053	780.8
682.501	770.2
682.948	774.8
683.396	778.3
683.843	771.8
684.291	775.8
684.738	779.4
685.185	778.8
685.633	778.8
686.08	768.8
686.527	774.2
686.974	783.8
687.422	771.7
687.869	775.3
688.316	779.5
688.763	779
689.21	778.5
689.657	770.6
690.104	780.8
690.551	781.8
690.998	774.8
691.445	774.6
691.892	780.2
692.339	782.8
692.786	783.9
693.233	776.7
693.68	778.7
694.127	780.8
694.573	769.5
695.02	774.3
695.467	781
695.913	771.2
696.36	777.5
696.807	767.8
697.253	778.7
697.7	781.7
698.146	769.9
698.593	775.6
699.039	784.8
699.486	776.4
699.932	779.8
700.379	772.8
700.825	778.7
701.272	779.4
701.718	771
702.164	773.4
702.61	780.5
703.057	773.2
703.503	781.4
703.949	782.2
704.395	777.4
704.841	776.9
705.287	769.2
705.734	779.8
706.18	783.3
706.626	775.8
707.072	775.6
707.518	782.6
707.964	778.1
708.409	777.4
708.855	770.7
709.301	776.9
709.747	780.3
710.193	775.7
710.639	771.5
711.084	783.8
711.53	771.1
711.976	776.4
712.421	774.1
712.867	778.5
713.313	787.3
713.758	771.8
714.204	778.4
714.649	787.8
715.095	772.4
715.54	775.2
715.986	772.1
716.431	775.6
716.877	777.9
717.322	766.3
717.767	774.7
718.213	784.2
718.658	771.9
719.103	779.4
719.548	778.9
719.994	784.5
720.439	773
720.884	765.8
721.329	779.5
721.774	783.8
722.219	770.2
722.664	778.4
723.109	782.2
723.554	777.6
723.999	777.1
724.444	768.3
724.889	781.6
725.334	781.6
725.779	769.1
726.223	771.4
726.668	784.4
727.113	769
727.558	779.3
728.002	772.1
728.447	780.3
728.892	775.6
729.336	766.1
729.781	774.5
730.225	787
730.67	774.5
731.114	776.8
731.559	775.6
732.003	775.7
732.448	780.3
732.892	772.2
733.337	772.6
733.781	784.8
734.225	775
734.67	777
735.114	780.7
735.558	777.4
736.002	778.4
736.446	771.8
736.891	777.2
737.335	780.2
737.779	770.7
738.223	775
738.667	784.3
739.111	779.9
739.555	783.6
739.999	772.9
740.443	780.3
740.887	785
741.33	771.3
741.774	773.4
742.218	781.3
742.662	767.3
743.106	784.8
743.549	772.6
743.993	775
744.437	782.5
744.88	766.1
745.324	775.3
745.768	786.2
746.211	772.4
746.655	779.1
747.098	778
747.542	781.2
747.985	779.8
748.429	770.6
748.872	779
749.315	779.2
749.759	768
750.202	772.7
750.645	775.8
751.089	783.1
751.532	778.6
751.975	769.9
752.418	778
752.861	786.3
753.305	770
753.748	776.3
754.191	784.9
754.634	776.7
755.077	775.6
755.52	766.6
755.963	777.8
756.406	781.9
756.849	773.5
757.291	779.8
757.734	780.4
758.177	775.5
758.62	780.2
759.063	773
759.505	778.2
759.948	781.2
760.391	773.6
760.833	775.5
761.276	781.8
761.719	779.8
762.161	776.6
762.604	775
763.046	779.3
763.489	784.9
763.931	766.9
764.374	779.9
764.816	784.5
765.258	770.1
765.701	774
766.143	774.6
766.585	779.9
767.028	782.9
767.47	771.2
767.912	774.7
768.354	787.2
768.796	773.3
769.238	779.9
769.681	782.1
770.123	780.4
770.565	784.9
771.007	770.4
771.449	779.6
771.891	781.9
772.333	766.5
772.774	778.4
773.216	782
773.658	780.5
774.1	780
774.542	772.8
774.984	778.3
775.425	782.8
775.867	769.6
776.309	775.1
776.75	783.7
777.192	773
777.634	777.3
778.075	779.9
778.517	776.2
778.958	776.5
779.4	767
779.841	775.7
780.283	785.1
780.724	774.5
781.165	778.9
781.607	778.7
782.048	781.7
782.489	784.9
782.931	770.3
783.372	777.8
783.813	782.4
784.254	766.4
784.695	774.3
785.136	780.6
785.578	776.8
786.019	774
786.46	772.7
786.901	778
787.342	784.9
787.783	775
788.224	774.3
788.664	781.5
789.105	779.1
789.546	782.4
789.987	768.8
790.428	780.3
790.869	788.4
791.309	767.9
791.75	770.9
792.191	783.2
792.631	772.6
793.072	784.9
793.513	772.9
793.953	774.4
794.394	780.3
794.834	768.1
795.275	780.9
795.715	782.5
796.156	770.9
796.596	782.6
797.036	777.3
797.477	778.7
797.917	781.4
798.357	768.2
798.798	779.1
799.238	786.3
799.678	773.7
800.118	776.2
800.558	779.7
800.998	776.1
801.439	783.1
801.879	766.6
802.319	774.7
802.759	784.3
803.199	771.4
803.639	773.8
804.079	781.6
804.518	779
804.958	777.4
805.398	773.5
805.838	778.5
806.278	787.7
806.718	767.8
807.157	772.1
807.597	780.1
808.037	776.2
808.476	782.1
808.916	779.1
809.356	777
809.795	786.3
810.235	771.1
810.674	774.2
811.114	787.3
811.553	775.8
811.993	775.3
812.432	780.7
812.871	780.3
813.311	781.3
813.75	768.8
814.189	774.6
814.629	783.9
815.068	773.5
815.507	774.8
815.946	785
816.385	781.5
816.824	781
817.263	771.3
817.703	780.3
818.142	782.5
818.581	767.2
819.02	776.1
819.459	784
819.897	781.9
820.336	780.1
820.775	770.5
821.214	783.2
821.653	787.1
822.092	772.6
822.53	776.2
822.969	786.9
823.408	771.5
823.847	781.4
824.285	778.5
824.724	781.4
825.162	782.1
825.601	770
826.04	776.7
826.478	787.1
826.916	775.9
827.355	777
827.793	773
828.232	783.5
828.67	778.6
829.108	773.6
829.547	775.6
829.985	786.9
830.423	774.9
830.862	777.4
831.3	778.8
831.738	778.6
832.176	777.5
832.614	776
833.052	777.7
833.49	781.3
833.928	775.4
834.366	774.5
834.804	783
835.242	779.1
835.68	778.4
836.118	772.6
836.556	774.6
836.994	782.2
837.432	770.1
837.869	774.9
838.307	785.2
838.745	776.4
839.183	780.3
839.62	775.9
840.058	781.8
840.496	779.4
840.933	770.4
841.371	778.6
841.808	789.2
842.246	777.2
842.683	780.7
843.121	778.2
843.558	778.2
843.995	783.4
844.433	773.6
844.87	773.8
845.307	785.1
845.745	774.6
846.182	775.5
846.619	780.9
847.056	778.2
847.494	774.8
847.931	769.6
848.368	778.2
848.805	785.8
849.242	770.7
849.679	772.9
850.116	784.4
850.553	777.6
850.99	782.9
851.427	771.8
851.864	777.6
852.301	787.9
852.737	767.4
853.174	777.6
853.611	780.8
854.048	770.7
854.484	775.8
854.921	773.7
855.358	782.4
855.794	780.7
856.231	769.8
856.668	775.4
857.104	784.4
857.541	777.7
857.977	782.5
858.414	775.3
858.85	775.2
859.286	778.7
859.723	768
860.159	778.5
860.596	786.3
861.032	777.3
861.468	772.9
861.904	778.8
862.341	777
862.777	782.6
863.213	773.8
863.649	774.3
864.085	783.2
864.521	772.3
864.957	774.1
865.393	785.3
865.829	775.7
866.265	776.5
866.701	773.5
867.137	779.8
867.573	783
868.009	769.7
868.445	774.3
868.88	781.5
869.316	774.1
869.752	781.2
870.188	773.2
870.623	779.2
871.059	781.7
871.495	768.9
871.93	774
872.366	787.3
872.801	771.7
873.237	780.8
873.672	775.6
874.108	778.5
874.543	780.1
874.979	767
875.414	777.1
875.849	786
876.285	773.4
876.72	775.4
877.155	776
877.59	778.8
878.026	783.5
878.461	770
878.896	776.6
879.331	778.1
879.766	775.6
880.201	774.5
880.636	783.9
881.071	782.3
881.506	778.1
881.941	768.4
882.376	779.5
882.811	782.2
883.246	768.3
883.681	775.3
884.116	786.4
884.55	773.3
884.985	779.4
885.42	772.9
885.855	778.9
886.289	778.7
886.724	776.1
887.159	775.4
887.593	792
888.028	773.1
888.462	777.5
888.897	775.2
889.331	781.7
889.766	783.4
890.2	767.4
890.634	775.3
891.069	780.1
891.503	770.6
891.937	777.6
892.372	782.9
892.806	780.6
893.24	781.5
893.674	771.3
894.109	773.6
894.543	781.5
894.977	771.7
895.411	780
895.845	779.8
896.279	778.8
896.713	775.2
897.147	775.2
897.581	782.6
898.015	782.5
898.449	770.9
898.883	776.1
899.316	784.6
899.75	775.1
900.184	781.4
900.618	772.8
901.051	778.6
901.485	784.2
901.919	770.8
902.352	776.5
902.786	787.2
903.22	775.2
903.653	775.3
904.087	777.6
904.52	779.9
904.954	779.5
905.387	766
905.82	771.7
906.254	785.9
906.687	774.1
907.121	775.1
907.554	777
907.987	781.3
908.42	780.4
908.854	772.6
909.287	770.1
909.72	784.2
910.153	768.9
910.586	776.5
911.019	778.3
911.452	777.9
911.885	778.1
912.318	770.9
912.751	782.1
913.184	782.9
913.617	773.2
914.05	778.3
914.483	780.3
914.916	776.3
915.348	776.2
915.781	774.8
916.214	782.4
916.647	783.1
917.079	768.5
917.512	775.1
917.944	788.5
918.377	775.1
918.81	782.7
919.242	779.2
919.675	780
920.107	786.2
920.54	768.5
920.972	776.1
921.404	788.1
921.837	775.1
922.269	779.1
922.701	783.1
923.134	783
923.566	783.9
923.998	770.4
924.43	776.1
924.863	783.9
925.295	777.6
925.727	774.4
926.159	774.1
926.591	779.1
927.023	776.2
927.455	775.9
927.887	778
928.319	783.8
928.751	771.2
929.183	775.9
929.615	783.1
930.046	774.4
930.478	780.4
930.91	769.8
931.342	778
931.773	778
932.205	767.6
932.637	776.2
933.068	784
933.5	776.8
933.932	779.9
934.363	780.7
934.795	777.2
935.226	779.7
935.658	769.8
936.089	773.3
936.521	781.9
936.952	772.6
937.383	775.5
937.815	779.5
938.246	778.3
938.677	783
939.108	772.8
939.54	781.2
939.971	781.5
940.402	777.8
940.833	774.9
941.264	777.6
941.695	778.7
942.126	779
942.557	771.7
942.988	776.6
943.419	780.5
943.85	771.2
944.281	779.3
944.712	788.4
945.143	776.7
945.574	778
946.004	776.9
946.435	781.6
946.866	778.6
947.297	766.7
947.727	780.1
948.158	783.9
948.588	774.7
949.019	779.6
949.45	773.7
949.88	778.1
950.311	781.5
950.741	769.6
951.172	779.8
951.602	784.5
952.032	774.4
952.463	775.9
952.893	777.1
953.323	780.3
953.754	782.5
954.184	765.2
954.614	773.1
955.044	786.2
955.475	772.4
955.905	783.4
956.335	781.8
956.765	776.8
957.195	780.4
957.625	773
958.055	775
958.485	782.1
958.915	770.7
959.345	777.1
959.775	783.8
960.204	774.4
960.634	775.3
961.064	765.1
961.494	780.7
961.924	782
962.353	773
962.783	774.7
963.213	787.4
963.642	775
964.072	775.9
964.501	773.3
964.931	780.7
965.361	781.9
965.79	770.5
966.219	774.4
966.649	785.9
967.078	776.2
967.508	777.7
967.937	777.3
968.366	781.1
968.796	789.4
969.225	774
969.654	776.8
970.083	783
970.513	770.9
970.942	779
971.371	778.1
971.8	774.5
972.229	776.5
972.658	771.6
973.087	779.6
973.516	782.7
973.945	769.1
974.374	776.7
974.803	781.5
975.232	776.7
975.66	777.4
976.089	772.2
976.518	779.1
976.947	785.1
977.375	771.2
977.804	773.3
978.233	784
978.661	777.2
979.09	785.1
979.519	773.3
979.947	776.5
980.376	780.1
980.804	772.6
981.233	778.7
981.661	785.9
982.09	775.5
982.518	777.3
982.946	775.3
983.375	779.1
983.803	780.7
984.231	772.1
984.659	776.9
985.088	782.3
985.516	773.2
985.944	776.6
986.372	779.5
986.8	779.6
987.228	778.4
987.656	770.3
988.084	776.6
988.512	783.7
988.94	771.9
989.368	774.7
989.796	781
990.224	773.8
990.652	776.6
991.08	769.8
991.507	776.1
991.935	785.6
992.363	770.1
992.791	772.5
993.218	783.1
993.646	770.3
994.074	778.9
994.501	770
994.929	778.3
995.356	784.6
995.784	766.1
996.211	774.9
996.639	787.3
997.066	771.7
997.493	780.1
997.921	778.9
998.348	779.4
998.775	777.5
999.203	768.3
999.63	780.7
1000.057	783.3
1000.484	768.5
1000.912	774.7
1001.339	776.7
1001.766	782.1
1002.193	778.7
1002.62	763.8
1003.047	778.9
1003.474	784.8
1003.901	770.5
1004.328	767.9
1004.755	784
1005.182	777.4
1005.608	779.3
1006.035	769.4
1006.462	772
1006.889	783.5
1007.316	772.3
1007.742	779.3
1008.169	785.6
1008.596	774.3
1009.022	776.2
1009.449	765.5
1009.875	782.6
1010.302	780.8
1010.728	765
1011.155	774.5
1011.581	786
1012.008	775.3
1012.434	775.7
1012.861	774.2
1013.287	774.6
1013.713	781.5
1014.139	774.8
1014.566	778.5
1014.992	787.8
1015.418	773
1015.844	774.5
1016.27	779.4
1016.697	776.4
1017.123	781.1
1017.549	772
1017.975	776
1018.401	778.1
1018.827	771.7
1019.253	774.2
1019.679	781.4
1020.104	777.9
1020.53	772.7
1020.956	768.8
1021.382	772.4
1021.808	785.6
1022.233	769.7
1022.659	775.7
1023.085	787.2
1023.51	771.4
1023.936	777.3
1024.362	771.2
1024.787	774.7
1025.213	782.4
1025.638	768.3
1026.064	778.5
1026.489	788.9
1026.915	772.3
1027.34	776.2
1027.765	774.2
1028.191	776.4
1028.616	783.7
1029.041	767.9
1029.467	775.9
1029.892	787.7
1030.317	771.9
1030.742	774.9
1031.167	780.2
1031.592	775.9
1032.018	776.6
1032.443	770.6
1032.868	775.5
1033.293	785.5
1033.718	767.8
1034.143	772.3
1034.567	780.9
1034.992	776.5
1035.417	777.2
1035.842	769.9
1036.267	777.7
1036.692	783.8
1037.116	769.3
1037.541	777.6
1037.966	778.7
1038.39	771.4
1038.815	776
1039.24	769.6
1039.664	775.9
1040.089	782.2
1040.513	767.6
1040.938	772
1041.362	785
1041.787	777
1042.211	781.6
1042.635	780.4
1043.06	779.7
1043.484	775.6
1043.908	768
1044.333	775.6
1044.757	784
1045.181	772.9
1045.605	773.5
1046.029	774.8
1046.454	775.9
1046.878	781.4
1047.302	766.1
1047.726	783
1048.15	787.4
1048.574	774.6
1048.998	771.7
1049.422	781.1
1049.845	773.2
1050.269	782.1
1050.693	772
1051.117	777.9
1051.541	783.6
1051.964	768.6
1052.388	769.7
1052.812	784.1
1053.235	775.6
1053.659	775.1
1054.083	775.2
1054.506	776.2
1054.93	781.9
1055.353	770.5
1055.777	774.2
1056.2	785.8
1056.624	777.5
1057.047	778.9
1057.471	770.6
1057.894	781.5
1058.317	778.9
1058.74	769.6
1059.164	775.6
1059.587	781
1060.01	770.1
1060.433	779.6
1060.856	781.6
1061.28	776
1061.703	776.5
1062.126	770.6
1062.549	781.2
1062.972	785.6
1063.395	772.6
1063.818	773.8
1064.241	774.6
1064.663	773.7
1065.086	779.6
1065.509	770.4
1065.932	775
1066.355	781
1066.777	766.7
1067.2	775.4
1067.623	784.4
1068.046	775.8
1068.468	776.2
1068.891	770.1
1069.313	779.9
1069.736	783
1070.158	764.4
1070.581	773.9
1071.003	784.2
1071.426	771.1
1071.848	776.4
1072.271	772.8
1072.693	774.1
1073.115	777.5
1073.538	767.8
1073.96	772.9
1074.382	782.3
1074.804	771.2
1075.226	776.7
1075.649	775.6
1076.071	779
1076.493	778.4
1076.915	766.9
1077.337	776.2
1077.759	783.2
1078.181	773.1
1078.603	770.7
1079.025	781.8
1079.447	776.1
1079.868	780.7
1080.29	774.1
1080.712	781
1081.134	781.3
1081.556	769.9
1081.977	773.6
1082.399	782.2
1082.821	773.5
1083.242	770.2
1083.664	773.6
1084.085	773.1
1084.507	777.8
1084.928	771.5
1085.35	769.8
1085.771	784
1086.193	771.5
1086.614	778.4
1087.036	771.6
1087.457	777.8
1087.878	776
1088.3	772.3
1088.721	771.8
1089.142	780.7
1089.563	779.2
1089.984	773.7
1090.406	773.3
1090.827	779.1
1091.248	781
1091.669	768.1
1092.09	776.5
1092.511	779.2
1092.932	768.5
1093.353	775.3
1093.774	781.6
1094.195	775.8
1094.615	783.1
1095.036	769.7
1095.457	779.2
1095.878	777.6
1096.299	769.8
1096.719	776.3
1097.14	780.9
1097.561	773.7
1097.981	775
1098.402	773.2
1098.822	773.6
1099.243	778.9
1099.663	769.9
1100.084	773.7
1100.504	778.1
1100.925	767
1101.345	773.7
1101.766	773.3
1102.186	776.3
1102.606	782.3
1103.026	764
1103.447	771.8
1103.867	782.3
1104.287	771.7
1104.707	774.4
