节点UV_HRD08281_00022.txt的数据
Date: Wed Jan 15 10:39:14 CST 2020
User: lab329
Spectrometer: HR+D0828
触发模式: 0
积分时间 (秒): 2.000000E-3
Scans to average: 10
启用暗噪声校正: false
启用非线性校正: false
滑动平均宽度: 0
X轴模式: Wavelengths
Number of Pixels in Spectrum: 2048
>>>>>Begin Spectral Data<<<<<
186.281	776.9
186.758	776.9
187.234	776.9
187.71	779.9
188.187	783.3
188.663	780.6
189.139	778.4
189.615	779.9
190.091	781.1
190.567	785.1
191.043	781
191.519	777
191.995	776.5
192.471	778.3
192.947	782.4
193.423	785.9
193.899	776.6
194.375	775.6
194.851	778.3
195.327	771.6
195.803	781.4
196.278	781.3
196.754	781.7
197.23	779
197.706	782.1
198.181	782.1
198.657	781
199.133	779.6
199.608	777.5
200.084	779.6
200.559	778.4
201.035	777.9
201.51	780.4
201.986	782.4
202.461	778.6
202.937	775.4
203.412	779.9
203.887	778.5
204.363	780
204.838	781.7
205.313	779.7
205.789	777.6
206.264	774.4
206.739	778
207.214	778
207.689	777.4
208.165	779.7
208.64	777.6
209.115	775.9
209.59	779.1
210.065	777.6
210.54	775.7
211.015	777.8
211.49	779.8
211.965	776.5
212.44	774.9
212.914	776.2
213.389	780.5
213.864	779.3
214.339	780.9
214.814	780.2
215.288	777.8
215.763	776.2
216.238	778
216.712	782.6
217.187	775.9
217.662	778.2
218.136	776.9
218.611	779.5
219.085	778.8
219.56	773.1
220.034	775.1
220.509	778.6
220.983	775.2
221.458	778.3
221.932	776.8
222.406	776.8
222.881	779.5
223.355	776
223.829	775.7
224.303	779
224.778	776.8
225.252	775
225.726	777.8
226.2	775.2
226.674	775.8
227.148	775.5
227.622	777.3
228.096	778
228.57	777.7
229.044	777.9
229.518	776.6
229.992	776.5
230.466	776.9
230.94	776.4
231.414	777.9
231.888	779.2
232.361	779.4
232.835	778.4
233.309	773
233.783	779.8
234.256	780.8
234.73	781
235.204	778.9
235.677	780.8
236.151	778.9
236.624	776.9
237.098	777.2
237.571	774.4
238.045	778.4
238.518	774.9
238.992	778.7
239.465	776.6
239.939	773.4
240.412	777.9
240.885	782.4
241.359	779.3
241.832	776.4
242.305	777.3
242.778	779.9
243.251	779.9
243.725	776.3
244.198	783.1
244.671	776.1
245.144	774.4
245.617	778.4
246.09	778.7
246.563	777.8
247.036	776.3
247.509	778.8
247.982	781.9
248.455	780
248.928	778
249.4	780.1
249.873	778
250.346	779.2
250.819	780.6
251.292	777.9
251.764	780.9
252.237	781.3
252.71	775.4
253.182	780.2
253.655	778.8
254.127	775.9
254.6	780
255.073	779.9
255.545	782.6
256.018	778.4
256.49	778.3
256.962	778.8
257.435	776.5
257.907	781.4
258.379	777.4
258.852	778
259.324	778.7
259.796	781.8
260.269	777.1
260.741	779.7
261.213	779.5
261.685	775.7
262.157	776.8
262.629	780.3
263.101	781.7
263.574	778.4
264.046	775.7
264.518	781.1
264.99	779.2
265.461	778.4
265.933	783.9
266.405	773
266.877	780.7
267.349	781.2
267.821	777.1
268.293	779.8
268.764	772.6
269.236	776.5
269.708	780.6
270.18	777.8
270.651	782.7
271.123	780.3
271.594	772.8
272.066	783.1
272.538	783.2
273.009	779.1
273.481	783.1
273.952	779.9
274.423	778.3
274.895	782.3
275.366	774.8
275.838	779.2
276.309	780.5
276.78	776.7
277.252	778.5
277.723	780.3
278.194	776.8
278.665	782
279.136	780.8
279.608	777.4
280.079	776.7
280.55	779.9
281.021	778.6
281.492	781.5
281.963	780.5
282.434	778.6
282.905	781.5
283.376	783.7
283.847	775.7
284.318	777.3
284.789	778.8
285.259	777.6
285.73	774.4
286.201	778.9
286.672	779.5
287.143	778
287.613	774.3
288.084	780.3
288.555	782
289.025	786.6
289.496	782.5
289.966	785
290.437	781.7
290.907	780.1
291.378	782.5
291.848	782
292.319	777.2
292.789	777.9
293.26	780.1
293.73	781
294.2	780.8
294.671	774.8
295.141	782.2
295.611	776.3
296.081	776.5
296.552	779.6
297.022	780.4
297.492	778.8
297.962	780.8
298.432	775.9
298.902	780.4
299.372	779.8
299.842	777.2
300.312	778.6
300.782	777.7
301.252	780
301.722	780.5
302.192	782.5
302.662	780.8
303.132	777.4
303.602	781
304.071	779.1
304.541	779.4
305.011	781.3
305.481	779.8
305.95	778.6
306.42	778.3
306.889	782
307.359	776.1
307.829	776.2
308.298	778.5
308.768	783.4
309.237	779
309.707	774.8
310.176	783.1
310.645	782.5
311.115	779.4
311.584	780.7
312.054	780.7
312.523	782.2
312.992	774.2
313.461	781.6
313.931	783.8
314.4	782.8
314.869	776.8
315.338	782
315.807	777.4
316.276	776
316.745	781.8
317.214	776.3
317.683	781.1
318.152	779.5
318.621	782.7
319.09	780.4
319.559	782
320.028	778.4
320.497	777.9
320.966	780.4
321.435	782.1
321.903	779.4
322.372	776.5
322.841	778.3
323.31	778.4
323.778	784.8
324.247	782
324.715	778.5
325.184	776.5
325.653	782
326.121	776.9
326.59	788.2
327.058	781.7
327.527	780.4
327.995	780.7
328.463	783.6
328.932	784.3
329.4	780.3
329.868	782.2
330.337	785.2
330.805	778.6
331.273	778.3
331.741	776.4
332.21	781.4
332.678	781.1
333.146	780.6
333.614	781.4
334.082	777.3
334.55	778.6
335.018	775.7
335.486	779.1
335.954	779.4
336.422	781.4
336.89	784.4
337.358	776.4
337.826	779.9
338.294	780
338.762	779.4
339.229	779.2
339.697	783.6
340.165	779.2
340.633	784.7
341.1	781.1
341.568	782.1
342.035	781.4
342.503	781.3
342.971	785.4
343.438	782.4
343.906	783.2
344.373	782.3
344.841	778.1
345.308	782.6
345.776	783.3
346.243	779.7
346.71	780.2
347.178	782.5
347.645	776.5
348.112	783.7
348.58	779.3
349.047	779.3
349.514	783
349.981	781
350.448	782.7
350.915	778.2
351.383	777.8
351.85	777
352.317	783.4
352.784	781.4
353.251	778.8
353.718	784.2
354.185	784.9
354.651	784
355.118	779.2
355.585	783.2
356.052	781.8
356.519	780
356.986	783.6
357.452	782.7
357.919	785.3
358.386	781.8
358.853	779.9
359.319	783
359.786	780.6
360.252	781.7
360.719	785.2
361.185	780.8
361.652	782.6
362.118	782
362.585	780.4
363.051	784.4
363.518	779.7
363.984	784.2
364.451	780.6
364.917	781.5
365.383	778.1
365.849	779.1
366.316	782.8
366.782	781.4
367.248	782.6
367.714	783.3
368.18	780.7
368.647	779.6
369.113	783.5
369.579	780.4
370.045	782.5
370.511	780.6
370.977	785
371.443	776.5
371.909	785.6
372.374	781.5
372.84	784.3
373.306	782.1
373.772	784.1
374.238	784.8
374.704	778.7
375.169	781.7
375.635	781.7
376.101	780.5
376.566	780.5
377.032	777.3
377.498	780.9
377.963	785.8
378.429	779.7
378.894	782
379.36	783.2
379.825	781.2
380.291	781.3
380.756	780.8
381.222	784.8
381.687	783.8
382.152	780.6
382.618	781.1
383.083	780.1
383.548	779
384.013	779.1
384.479	780.4
384.944	784.2
385.409	777.3
385.874	785
386.339	782
386.804	779.6
387.269	776.3
387.734	779.2
388.199	781.4
388.664	782.4
389.129	786.8
389.594	782.2
390.059	784
390.524	788.6
390.989	787
391.453	783.6
391.918	789.9
392.383	782.8
392.848	778.1
393.312	781.6
393.777	780
394.242	779.2
394.706	783.5
395.171	780.6
395.635	785.4
396.1	780.8
396.565	782.6
397.029	783
397.493	785.6
397.958	784.5
398.422	783.1
398.887	783
399.351	784.6
399.815	783.3
400.28	779.2
400.744	785.4
401.208	778
401.672	779.1
402.137	780.5
402.601	781.9
403.065	781.6
403.529	782.3
403.993	780.5
404.457	780.3
404.921	784.7
405.385	777.9
405.849	786.2
406.313	781.1
406.777	778.3
407.241	783.7
407.705	781.7
408.169	784.6
408.632	784.8
409.096	782.8
409.56	785.7
410.024	786.9
410.487	785.7
410.951	781.8
411.415	783.4
411.878	787
412.342	782.1
412.806	781
413.269	779.2
413.733	786.6
414.196	788.4
414.66	786.8
415.123	783.8
415.587	784.8
416.05	787
416.513	787.7
416.977	783.4
417.44	784.5
417.903	785.1
418.366	779.5
418.83	785.8
419.293	784.4
419.756	781.9
420.219	780.2
420.682	786.1
421.145	783.5
421.608	783
422.072	786.4
422.535	787.2
422.998	787.6
423.46	790.5
423.923	786.3
424.386	785.8
424.849	785.3
425.312	784.1
425.775	788.2
426.238	786
426.7	790.5
427.163	785.6
427.626	787
428.089	791.1
428.551	793.2
429.014	789.3
429.477	791.5
429.939	796.5
430.402	798.7
430.864	799.3
431.327	799.8
431.789	799.2
432.252	799.3
432.714	801.1
433.176	803
433.639	801.2
434.101	808
434.563	807.2
435.026	811
435.488	815.6
435.95	815
436.412	820.8
436.875	824.4
437.337	837.5
437.799	846.6
438.261	855.5
438.723	872.3
439.185	893.5
439.647	915.8
440.109	949.9
440.571	995.4
441.033	1053.3
441.495	1134.7
441.957	1234.7
442.419	1351.2
442.881	1513.1
443.342	1684.7
443.804	1882.4
444.266	2140.7
444.728	2440.1
445.189	2770.6
445.651	3150.6
446.113	3666.4
446.574	4215.4
447.036	4810.9
447.497	5467.4
447.959	6199.7
448.421	7051.6
448.882	7787.5
449.343	8610.7
449.805	9146.8
450.266	10096.4
450.728	10957.3
451.189	11463.8
451.65	11668.5
452.112	12366.7
452.573	12767.2
453.034	12961.3
453.495	13047
453.957	12810.3
454.418	12515.3
454.879	12030.5
455.34	11661.7
455.801	11209.1
456.262	10824.7
456.723	10301.6
457.184	9689.4
457.645	9177.2
458.106	8599.4
458.567	7978.2
459.028	7451.2
459.489	6698.8
459.95	6139.1
460.41	5560.1
460.871	5058.7
461.332	4560.8
461.793	4168
462.253	3712.7
462.714	3346.6
463.175	3031.3
463.635	2706.5
464.096	2461.5
464.556	2281.5
465.017	2079.2
465.478	1895.2
465.938	1748.8
466.398	1623.4
466.859	1500.2
467.319	1403.4
467.78	1321.9
468.24	1250.4
468.7	1180.6
469.161	1135.9
469.621	1087.1
470.081	1060.8
470.541	1027.6
471.002	1007.9
471.462	983.8
471.922	971
472.382	946.5
472.842	938.7
473.302	932.2
473.762	906.5
474.222	899
474.682	895.3
475.142	893.1
475.602	885.7
476.062	878.6
476.522	880.1
476.982	872.3
477.442	874
477.901	864.6
478.361	862.2
478.821	858.7
479.281	851.4
479.74	853.1
480.2	850.1
480.659	848.9
481.119	843.2
481.579	838.9
482.038	832.3
482.498	821.6
482.957	804.3
483.417	792.3
483.876	786.3
484.336	790.7
484.795	783.2
485.254	787.6
485.714	785.4
486.173	788.6
486.632	788
487.091	785.4
487.551	787.6
488.01	783.4
488.469	780.7
488.928	785.7
489.387	783.9
489.846	785.4
490.305	781.6
490.764	783.3
491.223	782.5
491.682	783.9
492.141	782.2
492.6	784.2
493.059	781.1
493.518	781.5
493.977	775.9
494.436	786.1
494.895	776.5
495.353	778.3
495.812	781.9
496.271	789.2
496.729	785.2
497.188	774.1
497.647	783.8
498.105	786.5
498.564	781.6
499.022	778.4
499.481	779.6
499.939	784.7
500.398	779.2
500.856	775.7
501.315	777.2
501.773	777.1
502.232	779.3
502.69	779.2
503.148	776.8
503.606	784
504.065	778.5
504.523	781.6
504.981	778.7
505.439	782.4
505.897	781.2
506.356	780.3
506.814	776.9
507.272	782.8
507.73	779.6
508.188	777.3
508.646	777.5
509.104	780.7
509.562	779.1
510.02	775.1
510.477	780.4
510.935	777.4
511.393	780.2
511.851	778
512.309	782
512.766	780.3
513.224	773.5
513.682	780
514.139	776.8
514.597	776.3
515.055	780.7
515.512	777.4
515.97	783.5
516.427	779.8
516.885	779.3
517.342	780
517.8	780
518.257	782.2
518.714	781.2
519.172	781.7
519.629	777.7
520.086	777.8
520.544	774.1
521.001	779.4
521.458	776
521.915	782
522.373	780.5
522.83	779.5
523.287	780.2
523.744	782.9
524.201	780.5
524.658	780.6
525.115	779.1
525.572	776.2
526.029	780.8
526.486	780.9
526.943	779.9
527.4	775.5
527.857	775.8
528.313	775.8
528.77	777.5
529.227	779.5
529.684	778.9
530.14	785
530.597	776.4
531.054	774.9
531.51	773.3
531.967	776.5
532.423	777.9
532.88	776.7
533.337	777.4
533.793	780.4
534.25	776
534.706	779.8
535.162	772
535.619	780.9
536.075	781.5
536.531	775.6
536.988	779.9
537.444	781.4
537.9	776.1
538.356	776.2
538.813	775.3
539.269	778.6
539.725	780.5
540.181	778.8
540.637	783.4
541.093	783.8
541.549	778.1
542.005	778.3
542.461	781.2
542.917	773.4
543.373	782.3
543.829	775.1
544.285	779.8
544.741	778
545.197	779.6
545.652	779.8
546.108	782.7
546.564	776.3
547.02	780.3
547.475	776
547.931	773.8
548.387	777.5
548.842	776.7
549.298	778.5
549.753	776.4
550.209	781.1
550.664	782.1
551.12	779
551.575	779.7
552.031	783.5
552.486	777.5
552.941	778.7
553.397	777.4
553.852	776.6
554.307	779.2
554.762	779.2
555.218	777.2
555.673	781.4
556.128	777.5
556.583	780.3
557.038	777
557.493	777.6
557.948	777.1
558.403	776.2
558.858	782.6
559.313	779.6
559.768	776.6
560.223	778.1
560.678	780.8
561.133	774
561.588	780.8
562.043	777.8
562.497	776.6
562.952	771.3
563.407	774.2
563.862	775.1
564.316	778.2
564.771	775.5
565.226	778.6
565.68	780.7
566.135	778.1
566.589	778.8
567.044	777.3
567.498	774.5
567.953	781.9
568.407	777.7
568.862	780
569.316	777.7
569.77	780.2
570.225	772.8
570.679	776.4
571.133	778.9
571.587	774.9
572.042	777.7
572.496	774.2
572.95	780.8
573.404	775
573.858	779.9
574.312	778.1
574.766	781.9
575.22	780.1
575.674	778.6
576.128	775.4
576.582	776.6
577.036	774.8
577.49	776.6
577.944	778.2
578.398	779.4
578.852	780.3
579.305	779.1
579.759	778.7
580.213	778.5
580.666	773.5
581.12	779
581.574	777.3
582.027	777.7
582.481	777.6
582.935	774.4
583.388	777.9
583.842	775.9
584.295	775.1
584.748	777.3
585.202	779
585.655	774.9
586.109	778.9
586.562	779.4
587.015	778.9
587.469	774
587.922	771.6
588.375	780.4
588.828	776
589.281	779.5
589.735	777.3
590.188	775
590.641	775
591.094	779.2
591.547	773
592	776.9
592.453	777.1
592.906	774.1
593.359	777.3
593.812	781.4
594.265	779.5
594.717	779.7
595.17	773.2
595.623	779
596.076	776.6
596.529	775
596.981	771.6
597.434	774.5
597.887	779.4
598.339	777.8
598.792	770.2
599.245	778.4
599.697	778.2
600.15	776.7
600.602	781.3
601.055	770.9
601.507	776.7
601.959	776.6
602.412	778.6
602.864	777.4
603.316	776.2
603.769	774.5
604.221	777.7
604.673	778.3
605.126	779.1
605.578	778.2
606.03	776.2
606.482	777.2
606.934	774.6
607.386	779.1
607.838	776.3
608.29	783
608.742	775.3
609.194	777.8
609.646	778.3
610.098	778.2
610.55	773.8
611.002	772.9
611.454	774.3
611.906	775.9
612.357	773.6
612.809	778.8
613.261	774.2
613.713	777
614.164	778
614.616	773.1
615.068	772.3
615.519	776.7
615.971	774.2
616.422	778.3
616.874	783.4
617.325	779.8
617.777	777
618.228	774.1
618.68	778.3
619.131	775
619.582	777.8
620.034	780.6
620.485	779.4
620.936	772.3
621.387	775.3
621.839	778.3
622.29	776.1
622.741	775.2
623.192	774.3
623.643	780.3
624.094	773.2
624.545	776.1
624.996	773.8
625.447	779.4
625.898	775.3
626.349	776.2
626.8	771.8
627.251	775.8
627.702	777.6
628.153	772.5
628.604	779.9
629.054	773.9
629.505	779.9
629.956	774.2
630.406	768.6
630.857	777.3
631.308	778.5
631.758	775
632.209	775.6
632.66	778.1
633.11	781.1
633.561	778
634.011	773.2
634.461	777.1
634.912	775.5
635.362	775.6
635.813	777.2
636.263	782.8
636.713	777.2
637.164	778.1
637.614	777.5
638.064	778.1
638.514	774.2
638.964	774.3
639.415	776.8
639.865	779.3
640.315	776.4
640.765	777.6
641.215	776.3
641.665	773.8
642.115	776.2
642.565	776.7
643.015	777.4
643.465	776.8
643.915	775.8
644.364	775.5
644.814	774
645.264	778.4
645.714	775.9
646.163	776.6
646.613	773.7
647.063	783
647.513	775.3
647.962	775.5
648.412	773.9
648.861	776.3
649.311	779.6
649.76	777.9
650.21	775.4
650.659	773.4
651.109	782.5
651.558	777.4
652.008	774.5
652.457	774.3
652.906	776.1
653.356	775.4
653.805	773.2
654.254	777.1
654.703	777.1
655.152	775.5
655.602	776.2
656.051	773.2
656.5	774.7
656.949	781.5
657.398	776.4
657.847	779.3
658.296	775
658.745	778.8
659.194	780.7
659.643	772.7
660.092	772.3
660.541	775.6
660.989	773.2
661.438	776.6
661.887	776.4
662.336	776.2
662.784	775.3
663.233	773.8
663.682	781.5
664.13	773.9
664.579	772.3
665.028	774.5
665.476	774
665.925	778.7
666.373	775.7
666.822	777.8
667.27	774.1
667.719	779.5
668.167	777.3
668.615	781.9
669.064	773.8
669.512	771.9
669.96	771.7
670.408	774.5
670.857	775.6
671.305	777.9
671.753	775.5
672.201	779
672.649	773.4
673.097	781.6
673.545	776.3
673.993	775.5
674.441	779.2
674.889	778.5
675.337	773
675.785	776
676.233	777
676.681	777.7
677.129	775.9
677.577	777.6
678.025	778.5
678.472	776.3
678.92	775.4
679.368	777.7
679.815	777.9
680.263	775.3
680.711	772.3
681.158	772.6
681.606	777.7
682.053	774.8
682.501	773.2
682.948	777.9
683.396	779.5
683.843	776.1
684.291	775.2
684.738	781.2
685.185	773.8
685.633	773
686.08	774
686.527	779.8
686.974	776.8
687.422	772.6
687.869	769.1
688.316	774.7
688.763	773.5
689.21	779.7
689.657	772.3
690.104	777.3
690.551	779.6
690.998	775.2
691.445	780.2
691.892	777.4
692.339	775.4
692.786	774.2
693.233	776.9
693.68	777.8
694.127	772.2
694.573	777.4
695.02	778.9
695.467	778.2
695.913	775.6
696.36	780.3
696.807	772.8
697.253	779
697.7	777.5
698.146	775.3
698.593	778.8
699.039	772.4
699.486	777
699.932	773.4
700.379	776.5
700.825	774.4
701.272	769.7
701.718	777.1
702.164	779.9
702.61	773.6
703.057	772.4
703.503	775
703.949	774.6
704.395	780.2
704.841	778.2
705.287	778.8
705.734	779.2
706.18	776.4
706.626	775.8
707.072	777.2
707.518	775.6
707.964	779.3
708.409	773.3
708.855	775.8
709.301	776.1
709.747	771.7
710.193	778
710.639	779.8
711.084	774.6
711.53	779.4
711.976	778
712.421	777.5
712.867	777.4
713.313	776.8
713.758	774.3
714.204	776.6
714.649	774.5
715.095	774.5
715.54	776.5
715.986	770.3
716.431	777.8
716.877	776.3
717.322	776.5
717.767	778.1
718.213	775.3
718.658	775.8
719.103	778
719.548	777.3
719.994	776.4
720.439	779.1
720.884	775.9
721.329	774.1
721.774	775.1
722.219	774
722.664	776.1
723.109	774.1
723.554	776.9
723.999	775.2
724.444	776.5
724.889	782
725.334	781.4
725.779	773.2
726.223	774.7
726.668	774.3
727.113	776
727.558	780
728.002	782.2
728.447	778.1
728.892	774.3
729.336	778.3
729.781	778
730.225	783.1
730.67	776.1
731.114	772.6
731.559	773.5
732.003	777.3
732.448	778.6
732.892	775.9
733.337	778
733.781	776
734.225	770.7
734.67	778.2
735.114	773.3
735.558	770.8
736.002	778.5
736.446	776.4
736.891	776.5
737.335	775.7
737.779	778.5
738.223	781.4
738.667	775.6
739.111	776.5
739.555	778.9
739.999	772.4
740.443	778.5
740.887	776.3
741.33	772.8
741.774	781.6
742.218	779.8
742.662	773.8
743.106	776.4
743.549	772.7
743.993	781.2
744.437	775.1
744.88	773.6
745.324	774.4
745.768	779.9
746.211	773
746.655	775.9
747.098	775.4
747.542	781.3
747.985	775
748.429	777.1
748.872	775.1
749.315	778.2
749.759	775
750.202	772.9
750.645	778.2
751.089	772.8
751.532	779
751.975	773.5
752.418	776.2
752.861	774.1
753.305	772.8
753.748	778.5
754.191	773.6
754.634	775.2
755.077	779.9
755.52	776.5
755.963	774.1
756.406	775.7
756.849	768.4
757.291	780.9
757.734	778.6
758.177	775.6
758.62	777.2
759.063	783.4
759.505	774
759.948	775
760.391	778.8
760.833	784
761.276	777.9
761.719	772.4
762.161	774.5
762.604	777
763.046	773.5
763.489	772.8
763.931	771.5
764.374	776
764.816	777.6
765.258	777
765.701	778.9
766.143	778.1
766.585	778.3
767.028	771.5
767.47	775.1
767.912	781.4
768.354	778.6
768.796	774.9
769.238	776.3
769.681	773
770.123	778.4
770.565	776.1
771.007	778.8
771.449	773.9
771.891	775.1
772.333	775.3
772.774	781.9
773.216	778.3
773.658	779.3
774.1	774.7
774.542	774.7
774.984	779.3
775.425	771.6
775.867	772.5
776.309	776.9
776.75	773.6
777.192	775.9
777.634	775.9
778.075	780
778.517	776.7
778.958	775.8
779.4	774.3
779.841	774.7
780.283	779.6
780.724	778.1
781.165	778.2
781.607	777.7
782.048	775
782.489	777.2
782.931	774.5
783.372	773.8
783.813	775.7
784.254	779.4
784.695	774.3
785.136	774
785.578	773.4
786.019	776.9
786.46	770.7
786.901	776.5
787.342	778
787.783	777.9
788.224	778.9
788.664	776.6
789.105	777.5
789.546	777.6
789.987	775.6
790.428	774.7
790.869	773.1
791.309	774.3
791.75	777.7
792.191	778.1
792.631	775.7
793.072	773.2
793.513	772.3
793.953	775.6
794.394	776.1
794.834	776
795.275	778.1
795.715	776.1
796.156	776.9
796.596	779.4
797.036	774.4
797.477	778.2
797.917	777.7
798.357	781.2
798.798	775.4
799.238	780.7
799.678	775.2
800.118	782.3
800.558	777.9
800.998	772.8
801.439	772.8
801.879	770.2
802.319	776.5
802.759	778.2
803.199	772.3
803.639	776.9
804.079	774.8
804.518	774.4
804.958	777.6
805.398	775.1
805.838	776.7
806.278	777.2
806.718	775.4
807.157	779.7
807.597	775.8
808.037	781.3
808.476	777.6
808.916	777.6
809.356	781.2
809.795	772.7
810.235	778
810.674	776.7
811.114	776.5
811.553	773.8
811.993	778.2
812.432	778.2
812.871	779.5
813.311	778.5
813.75	775.8
814.189	779.4
814.629	778.5
815.068	772.8
815.507	776.1
815.946	778.1
816.385	777.3
816.824	778.7
817.263	771.3
817.703	778
818.142	778.2
818.581	772.7
819.02	777.8
819.459	777.4
819.897	774.5
820.336	779.3
820.775	769.3
821.214	776.5
821.653	778.3
822.092	778.1
822.53	778.2
822.969	775
823.408	781
823.847	778.6
824.285	770.1
824.724	770.3
825.162	780.1
825.601	775.9
826.04	779.7
826.478	775.6
826.916	773.7
827.355	777
827.793	778.5
828.232	777.7
828.67	776.6
829.108	777.7
829.547	777.8
829.985	777
830.423	771.6
830.862	775.5
831.3	774.9
831.738	777.1
832.176	778.1
832.614	772.1
833.052	781.1
833.49	776.4
833.928	777.8
834.366	778
834.804	776.2
835.242	777.6
835.68	777.8
836.118	776.6
836.556	780.1
836.994	778.6
837.432	773.7
837.869	776.5
838.307	776.9
838.745	779.2
839.183	780.1
839.62	774.8
840.058	782.1
840.496	775.4
840.933	772.4
841.371	773.2
841.808	781.8
842.246	775.9
842.683	777
843.121	781.2
843.558	775.8
843.995	777
844.433	772.9
844.87	779.3
845.307	777.5
845.745	772.4
846.182	777.8
846.619	780.5
847.056	773.8
847.494	782.8
847.931	779.9
848.368	774.6
848.805	780.1
849.242	776
849.679	783.5
850.116	777
850.553	776.4
850.99	775.4
851.427	769.7
851.864	782.1
852.301	776.9
852.737	775.6
853.174	777.1
853.611	776
854.048	779
854.484	777.8
854.921	772.7
855.358	776.6
855.794	776.8
856.231	775.5
856.668	779.9
857.104	776.3
857.541	776.9
857.977	774.7
858.414	775.7
858.85	774.3
859.286	779.3
859.723	771.8
860.159	774.9
860.596	778.6
861.032	776.1
861.468	779.9
861.904	776.3
862.341	776.8
862.777	783.1
863.213	776.3
863.649	778.5
864.085	774.1
864.521	777.8
864.957	777.4
865.393	779.2
865.829	778.4
866.265	777.4
866.701	778.5
867.137	776.2
867.573	778.2
868.009	778.6
868.445	778.6
868.88	777.5
869.316	779.4
869.752	779.6
870.188	774.9
870.623	778.8
871.059	775.4
871.495	774.9
871.93	776
872.366	780.4
872.801	778.2
873.237	778.3
873.672	775.4
874.108	776.8
874.543	777.6
874.979	776.9
875.414	774.5
875.849	776.4
876.285	777.7
876.72	777.4
877.155	777.9
877.59	778.2
878.026	776.4
878.461	777.7
878.896	778.8
879.331	779.9
879.766	776.7
880.201	775.9
880.636	781.4
881.071	774.9
881.506	780.9
881.941	776.3
882.376	774.9
882.811	781
883.246	775.5
883.681	777.3
884.116	775.2
884.55	777.8
884.985	777.1
885.42	775.7
885.855	777.1
886.289	781.1
886.724	779.7
887.159	779.3
887.593	777.3
888.028	775.6
888.462	777
888.897	778.9
889.331	770.3
889.766	776.4
890.2	772.9
890.634	776.1
891.069	779.3
891.503	776.6
891.937	777.9
892.372	780.1
892.806	777.9
893.24	776.8
893.674	781
894.109	771.3
894.543	775.9
894.977	777.3
895.411	776.2
895.845	778.7
896.279	770.7
896.713	777.8
897.147	776.5
897.581	771.5
898.015	781
898.449	774.7
898.883	778
899.316	773.7
899.75	776.5
900.184	774.7
900.618	776.4
901.051	777.8
901.485	776.3
901.919	776.9
902.352	777.9
902.786	776.7
903.22	777.5
903.653	777
904.087	776.3
904.52	774.8
904.954	778.6
905.387	777.8
905.82	775.8
906.254	777.1
906.687	777.4
907.121	777.3
907.554	776.8
907.987	778
908.42	775.5
908.854	773.5
909.287	780.2
909.72	776.5
910.153	779.5
910.586	777
911.019	777.1
911.452	778.9
911.885	779.3
912.318	776.2
912.751	776.5
913.184	773.1
913.617	766.4
914.05	782
914.483	775.5
914.916	769.6
915.348	774.5
915.781	773.7
916.214	773.4
916.647	780.8
917.079	774.3
917.512	781.8
917.944	783.6
918.377	774.6
918.81	776.5
919.242	775.4
919.675	774.3
920.107	777.8
920.54	778.6
920.972	777.8
921.404	780.1
921.837	774.5
922.269	777.8
922.701	778.3
923.134	780.8
923.566	772.9
923.998	777.1
924.43	775.7
924.863	777.1
925.295	771.4
925.727	780
926.159	778.9
926.591	774.3
927.023	779.9
927.455	777.6
927.887	775.4
928.319	778.7
928.751	775.7
929.183	781.1
929.615	777.5
930.046	774.2
930.478	775
930.91	777.9
931.342	774.5
931.773	778.5
932.205	777.1
932.637	775.6
933.068	781.4
933.5	776.1
933.932	775.1
934.363	776.6
934.795	773.6
935.226	778.2
935.658	772.8
936.089	777.8
936.521	780.5
936.952	778.8
937.383	775.2
937.815	776.4
938.246	773.7
938.677	771.8
939.108	775.3
939.54	780.4
939.971	776.9
940.402	779.8
940.833	778
941.264	777.9
941.695	775.4
942.126	781.5
942.557	773.4
942.988	780.6
943.419	780.9
943.85	775.9
944.281	780.2
944.712	778.8
945.143	773.1
945.574	780
946.004	778.4
946.435	776.4
946.866	780.8
947.297	772.9
947.727	776.9
948.158	776.7
948.588	777.7
949.019	775.1
949.45	776.4
949.88	781.1
950.311	776.3
950.741	773.5
951.172	781
951.602	777.2
952.032	776.4
952.463	772.8
952.893	776.9
953.323	774.5
953.754	776.3
954.184	776.6
954.614	780.4
955.044	774.3
955.475	775.6
955.905	779.9
956.335	775.5
956.765	777
957.195	775.7
957.625	771.3
958.055	773.6
958.485	771.9
958.915	775.5
959.345	780.8
959.775	781.2
960.204	774.6
960.634	773.1
961.064	777
961.494	780.2
961.924	776.2
962.353	773.8
962.783	775.4
963.213	778.3
963.642	780.4
964.072	778.3
964.501	771.7
964.931	775.8
965.361	781.3
965.79	776.5
966.219	776
966.649	776.2
967.078	775.3
967.508	777.3
967.937	777.4
968.366	771.7
968.796	775.3
969.225	771.9
969.654	780.2
970.083	774.8
970.513	778.6
970.942	777.2
971.371	780
971.8	776.3
972.229	778.2
972.658	775
973.087	781
973.516	775.3
973.945	776.2
974.374	777.7
974.803	777.2
975.232	779.8
975.66	780.4
976.089	773.8
976.518	778.1
976.947	773.9
977.375	777.3
977.804	778.2
978.233	778.4
978.661	773.8
979.09	777.2
979.519	777.2
979.947	777.8
980.376	778.5
980.804	774.8
981.233	778.2
981.661	778.6
982.09	777.2
982.518	779
982.946	769.4
983.375	771.4
983.803	775.7
984.231	776.5
984.659	779.4
985.088	773.3
985.516	770.5
985.944	775
986.372	774.4
986.8	778.1
987.228	778.1
987.656	778.3
988.084	775.5
988.512	775.5
988.94	774.6
989.368	775.8
989.796	777.4
990.224	777.4
990.652	779.8
991.08	775.4
991.507	773.9
991.935	774.5
992.363	777.7
992.791	775.4
993.218	775.6
993.646	774.7
994.074	778.3
994.501	774.8
994.929	776.6
995.356	777.7
995.784	775.6
996.211	778.3
996.639	776.6
997.066	778.2
997.493	779.9
997.921	780.4
998.348	775.1
998.775	776
999.203	775.1
999.63	776.9
1000.057	774.4
1000.484	772.5
1000.912	779
1001.339	780.7
1001.766	780.7
1002.193	781.3
1002.62	771.7
1003.047	780.2
1003.474	777.6
1003.901	781.2
1004.328	774.4
1004.755	774.7
1005.182	780.6
1005.608	773.3
1006.035	777.5
1006.462	779.8
1006.889	779
1007.316	773.4
1007.742	776.2
1008.169	775.5
1008.596	778.7
1009.022	782.4
1009.449	773.2
1009.875	783.4
1010.302	779.9
1010.728	774.8
1011.155	775.6
1011.581	771.8
1012.008	774.3
1012.434	779.8
1012.861	772.2
1013.287	777
1013.713	777.4
1014.139	775.7
1014.566	772.6
1014.992	774.3
1015.418	775.3
1015.844	777.9
1016.27	775.3
1016.697	773.4
1017.123	773
1017.549	776.6
1017.975	775.5
1018.401	780.5
1018.827	778.9
1019.253	773.8
1019.679	777.8
1020.104	778.7
1020.53	778.9
1020.956	779.9
1021.382	777.3
1021.808	776.5
1022.233	776.6
1022.659	776.2
1023.085	775.1
1023.51	776.9
1023.936	775.2
1024.362	776
1024.787	777.5
1025.213	778.2
1025.638	777.5
1026.064	770.4
1026.489	776.4
1026.915	777.2
1027.34	776.5
1027.765	779.7
1028.191	774.9
1028.616	779.2
1029.041	773.7
1029.467	776
1029.892	774.6
1030.317	776.2
1030.742	775.1
1031.167	781.9
1031.592	774.4
1032.018	782.4
1032.443	778
1032.868	777.5
1033.293	772.7
1033.718	776
1034.143	776.5
1034.567	779.1
1034.992	777
1035.417	777.4
1035.842	772.5
1036.267	776.2
1036.692	777.1
1037.116	775.3
1037.541	777.6
1037.966	780.3
1038.39	778.1
1038.815	774.2
1039.24	776.4
1039.664	773.6
1040.089	777.7
1040.513	770.7
1040.938	776.5
1041.362	776.9
1041.787	776.4
1042.211	775.3
1042.635	776.4
1043.06	774.1
1043.484	777.9
1043.908	775.7
1044.333	776.6
1044.757	776.4
1045.181	777.3
1045.605	775.2
1046.029	781.3
1046.454	778.9
1046.878	780.8
1047.302	779.8
1047.726	779.1
1048.15	778.4
1048.574	775.9
1048.998	778.5
1049.422	778
1049.845	784.1
1050.269	775.6
1050.693	772.5
1051.117	775.4
1051.541	773.7
1051.964	778.5
1052.388	777.9
1052.812	777.6
1053.235	777.6
1053.659	775.6
1054.083	779.9
1054.506	779.2
1054.93	773.8
1055.353	779.8
1055.777	776.3
1056.2	780.1
1056.624	778.9
1057.047	772.4
1057.471	775.2
1057.894	778.7
1058.317	777.5
1058.74	776.2
1059.164	776.3
1059.587	773.6
1060.01	782.1
1060.433	774.5
1060.856	773.5
1061.28	781.2
1061.703	775.2
1062.126	776.2
1062.549	780
1062.972	777.2
1063.395	776.8
1063.818	772.6
1064.241	773.9
1064.663	769.8
1065.086	772
1065.509	773.1
1065.932	775.6
1066.355	778
1066.777	771.1
1067.2	775.6
1067.623	775.8
1068.046	776.8
1068.468	774.2
1068.891	775.1
1069.313	776.9
1069.736	773.3
1070.158	778.2
1070.581	776.3
1071.003	774.7
1071.426	773.4
1071.848	775.9
1072.271	777.8
1072.693	771.5
1073.115	777.5
1073.538	773.7
1073.96	782.8
1074.382	778.3
1074.804	776.5
1075.226	770.1
1075.649	772.7
1076.071	778
1076.493	778
1076.915	775
1077.337	778.1
1077.759	779.2
1078.181	776
1078.603	783.5
1079.025	774
1079.447	775
1079.868	777.1
1080.29	779.1
1080.712	780.3
1081.134	776.6
1081.556	774
1081.977	776.9
1082.399	774.1
1082.821	781.4
1083.242	775.8
1083.664	774.3
1084.085	778.2
1084.507	778.7
1084.928	776.8
1085.35	778.6
1085.771	776
1086.193	776.2
1086.614	773.9
1087.036	774.9
1087.457	774
1087.878	778.3
1088.3	774.5
1088.721	773.9
1089.142	776.6
1089.563	772.4
1089.984	776.5
1090.406	776.8
1090.827	777.8
1091.248	774.1
1091.669	775.5
1092.09	780
1092.511	777.1
1092.932	773.6
1093.353	780.1
1093.774	775.1
1094.195	770.2
1094.615	778.3
1095.036	773.3
1095.457	769.6
1095.878	778.2
1096.299	770.9
1096.719	776.7
1097.14	775.9
1097.561	775.5
1097.981	775.8
1098.402	774.1
1098.822	776
1099.243	774.8
1099.663	779.7
1100.084	775.6
1100.504	776.9
1100.925	777.2
1101.345	772.5
1101.766	772.7
1102.186	772.1
1102.606	771.3
1103.026	774.2
1103.447	772.2
1103.867	774.5
1104.287	778.8
1104.707	779.5
