节点UV_HRD08281_00025.txt的数据
Date: Wed Jan 15 10:39:54 CST 2020
User: lab329
Spectrometer: HR+D0828
触发模式: 0
积分时间 (秒): 2.000000E-3
Scans to average: 10
启用暗噪声校正: false
启用非线性校正: false
滑动平均宽度: 0
X轴模式: Wavelengths
Number of Pixels in Spectrum: 2048
>>>>>Begin Spectral Data<<<<<
186.281	779.2
186.758	779.2
187.234	779.2
187.71	782
188.187	782.8
188.663	779
189.139	783.1
189.615	778.3
190.091	775.6
190.567	783.1
191.043	777.8
191.519	774
191.995	782
192.471	779.4
192.947	776.1
193.423	778.8
193.899	774.8
194.375	787.4
194.851	779.2
195.327	775.6
195.803	776.8
196.278	778.2
196.754	772.8
197.23	777.8
197.706	776.8
198.181	785
198.657	782.3
199.133	782.1
199.608	783.1
200.084	778.3
200.559	782.1
201.035	777.9
201.51	777.6
201.986	775.7
202.461	782.6
202.937	778.2
203.412	777.9
203.887	777.1
204.363	776
204.838	778.6
205.313	780.7
205.789	780.2
206.264	779.6
206.739	780.8
207.214	780.3
207.689	778.3
208.165	777.2
208.64	778.4
209.115	779.7
209.59	780.1
210.065	780.7
210.54	773.2
211.015	773.9
211.49	778.9
211.965	779.6
212.44	780.9
212.914	779.6
213.389	782.4
213.864	784.2
214.339	776.7
214.814	776.8
215.288	773.9
215.763	776.7
216.238	782.1
216.712	776.8
217.187	777.1
217.662	780.2
218.136	781.7
218.611	779.6
219.085	779
219.56	783.1
220.034	779.2
220.509	778.6
220.983	774.6
221.458	776.3
221.932	776.7
222.406	776.7
222.881	783.7
223.355	774.9
223.829	775.8
224.303	780
224.778	775.6
225.252	780.3
225.726	781.8
226.2	779.4
226.674	782.1
227.148	780
227.622	781
228.096	780.5
228.57	780.5
229.044	775.8
229.518	776.5
229.992	776
230.466	783.2
230.94	779.1
231.414	779.3
231.888	778.7
232.361	782.2
232.835	780.8
233.309	781.1
233.783	777.4
234.256	778.6
234.73	775.5
235.204	784.3
235.677	784.5
236.151	777.6
236.624	780.7
237.098	782.7
237.571	779.5
238.045	776.4
238.518	781.4
238.992	777.9
239.465	783.3
239.939	779.7
240.412	775
240.885	782.3
241.359	779.1
241.832	780.2
242.305	781.7
242.778	774.5
243.251	783
243.725	778.1
244.198	777.6
244.671	779
245.144	775.6
245.617	778
246.09	776.9
246.563	778.2
247.036	781
247.509	780.4
247.982	782.9
248.455	784
248.928	774
249.4	784.8
249.873	781.1
250.346	780.5
250.819	779.9
251.292	779.1
251.764	780
252.237	777.9
252.71	776.7
253.182	781.9
253.655	778.1
254.127	776.8
254.6	778.3
255.073	775.7
255.545	781
256.018	782.2
256.49	776.3
256.962	778.2
257.435	784.6
257.907	780.4
258.379	782.7
258.852	779.6
259.324	775.7
259.796	779
260.269	779.2
260.741	782.3
261.213	779
261.685	776.8
262.157	776.2
262.629	782.5
263.101	775.6
263.574	785
264.046	775
264.518	778
264.99	783.2
265.461	776.3
265.933	781.3
266.405	782.3
266.877	779.4
267.349	778.8
267.821	781
268.293	783.8
268.764	782.5
269.236	782
269.708	779.1
270.18	773.6
270.651	783.1
271.123	781.2
271.594	780.9
272.066	783.6
272.538	779.7
273.009	777.2
273.481	781
273.952	782.4
274.423	782.6
274.895	781.5
275.366	779
275.838	783.9
276.309	782.8
276.78	778.5
277.252	780.1
277.723	776.9
278.194	776.9
278.665	779.8
279.136	781.6
279.608	779.1
280.079	779
280.55	776.1
281.021	783.5
281.492	780.6
281.963	776.8
282.434	775.4
282.905	778.7
283.376	776.9
283.847	779.3
284.318	782.2
284.789	780.7
285.259	782
285.73	781
286.201	780.2
286.672	778.3
287.143	782.8
287.613	784.3
288.084	778.4
288.555	782.8
289.025	780.3
289.496	779.5
289.966	784.2
290.437	783.8
290.907	781.4
291.378	778.2
291.848	780.2
292.319	783.3
292.789	780.9
293.26	783.7
293.73	780.6
294.2	777.9
294.671	782.8
295.141	782.1
295.611	781.8
296.081	776.2
296.552	778.7
297.022	778.8
297.492	784.5
297.962	780.5
298.432	774.6
298.902	776
299.372	778.6
299.842	780.5
300.312	784.4
300.782	777.6
301.252	781.7
301.722	778.2
302.192	776.5
302.662	782.3
303.132	780.5
303.602	773.1
304.071	783.4
304.541	773.7
305.011	779.4
305.481	779.9
305.95	782.5
306.42	780.3
306.889	779.6
307.359	777.2
307.829	780.2
308.298	783.6
308.768	778.2
309.237	775.2
309.707	778.8
310.176	780.8
310.645	779.1
311.115	778.8
311.584	781.9
312.054	776.9
312.523	781.5
312.992	778.8
313.461	785.1
313.931	779.4
314.4	781
314.869	779.1
315.338	780.8
315.807	779.6
316.276	776.7
316.745	777.5
317.214	781.6
317.683	784.2
318.152	779.9
318.621	779.4
319.09	779.1
319.559	777.5
320.028	779.5
320.497	783.2
320.966	781.4
321.435	782.8
321.903	784.2
322.372	775.6
322.841	782
323.31	780
323.778	787.1
324.247	777.7
324.715	776.8
325.184	780.4
325.653	784.9
326.121	778.9
326.59	779.5
327.058	783.2
327.527	780.2
327.995	783.2
328.463	779.6
328.932	782.4
329.4	780.3
329.868	777.3
330.337	782
330.805	782.3
331.273	781.3
331.741	781.5
332.21	786.6
332.678	784
333.146	782
333.614	778.7
334.082	783
334.55	781.2
335.018	779.5
335.486	782.8
335.954	781.2
336.422	780.5
336.89	780.9
337.358	782.8
337.826	781.7
338.294	783.7
338.762	782.9
339.229	786
339.697	782.2
340.165	778.9
340.633	782.1
341.1	780.2
341.568	776.2
342.035	780.5
342.503	780.3
342.971	787.5
343.438	783.9
343.906	780.9
344.373	781.8
344.841	784.1
345.308	785.1
345.776	781.6
346.243	775.7
346.71	782.8
347.178	775.7
347.645	779.2
348.112	780.1
348.58	781.8
349.047	781.2
349.514	776.3
349.981	782.1
350.448	785.9
350.915	782.3
351.383	783.6
351.85	779.4
352.317	780.9
352.784	783.4
353.251	778.4
353.718	782.7
354.185	784.1
354.651	785.1
355.118	780.8
355.585	781.5
356.052	779.1
356.519	777.5
356.986	779
357.452	779.7
357.919	780
358.386	781.3
358.853	780.3
359.319	784.1
359.786	782.8
360.252	784.4
360.719	783.1
361.185	786
361.652	783.5
362.118	782.4
362.585	778.9
363.051	780.3
363.518	785.4
363.984	777
364.451	783
364.917	783.3
365.383	778.9
365.849	781.3
366.316	781.5
366.782	783.9
367.248	780.5
367.714	785.4
368.18	783.3
368.647	777.9
369.113	786.9
369.579	782.7
370.045	780.7
370.511	775.6
370.977	780.3
371.443	782.6
371.909	787.2
372.374	781.6
372.84	782
373.306	779.4
373.772	785.2
374.238	779.8
374.704	782.7
375.169	777.5
375.635	782.1
376.101	782.9
376.566	782.8
377.032	779.3
377.498	784.3
377.963	784.1
378.429	784.2
378.894	778.9
379.36	779.6
379.825	781.6
380.291	781.4
380.756	783.6
381.222	779.9
381.687	782.1
382.152	782.3
382.618	777
383.083	782.8
383.548	779.2
384.013	781.8
384.479	778.4
384.944	782.4
385.409	779
385.874	783.1
386.339	781.5
386.804	780.7
387.269	780.6
387.734	781.2
388.199	780.3
388.664	777.4
389.129	780.2
389.594	779.8
390.059	787.1
390.524	784.7
390.989	780.5
391.453	777.1
391.918	782
392.383	779.6
392.848	781
393.312	786.5
393.777	781.3
394.242	781.1
394.706	777.1
395.171	777.6
395.635	781.7
396.1	785.1
396.565	781.2
397.029	786.4
397.493	780
397.958	782.2
398.422	783.5
398.887	781.2
399.351	779.9
399.815	784.2
400.28	782.3
400.744	782.5
401.208	789.6
401.672	782.2
402.137	783.6
402.601	785.2
403.065	788.1
403.529	784.5
403.993	779.5
404.457	781.1
404.921	781.3
405.385	784.7
405.849	784.5
406.313	784
406.777	781.9
407.241	786.2
407.705	785.3
408.169	785.5
408.632	784.5
409.096	783.7
409.56	777.9
410.024	782.5
410.487	787.8
410.951	783.1
411.415	784.1
411.878	782.3
412.342	786
412.806	785.9
413.269	787.6
413.733	782.9
414.196	785.4
414.66	778.5
415.123	780.2
415.587	785.1
416.05	786.3
416.513	786.8
416.977	781.4
417.44	788.9
417.903	784.5
418.366	782.7
418.83	785.2
419.293	784.8
419.756	787.1
420.219	784
420.682	783.3
421.145	784.8
421.608	788.3
422.072	787.8
422.535	785.1
422.998	783.4
423.46	785.2
423.923	783.2
424.386	786.6
424.849	786.5
425.312	786.7
425.775	786.7
426.238	787
426.7	785.9
427.163	784.1
427.626	784.8
428.089	780.9
428.551	788.7
429.014	785.1
429.477	789.5
429.939	784
430.402	783.4
430.864	783
431.327	788.8
431.789	786.5
432.252	791.6
432.714	784.9
433.176	791.9
433.639	787.9
434.101	788.6
434.563	788.6
435.026	790.7
435.488	792.1
435.95	789.6
436.412	791.1
436.875	788.2
437.337	789.6
437.799	793.9
438.261	795.1
438.723	796.3
439.185	791
439.647	791.9
440.109	796.2
440.571	795.1
441.033	800.1
441.495	791.9
441.957	798.9
442.419	799.7
442.881	796
443.342	804.6
443.804	801.3
444.266	806.9
444.728	802.9
445.189	803.7
445.651	806.9
446.113	809.5
446.574	810.6
447.036	815.4
447.497	828.3
447.959	825.6
448.421	822.7
448.882	832.1
449.343	845.6
449.805	845.7
450.266	858.3
450.728	864.8
451.189	889.6
451.65	903.6
452.112	932.1
452.573	960.3
453.034	998.1
453.495	1042.1
453.957	1095.1
454.418	1168.7
454.879	1254
455.34	1364.3
455.801	1494.1
456.262	1647.3
456.723	1862.5
457.184	2084.5
457.645	2390.1
458.106	2714.4
458.567	3075.9
459.028	3561.5
459.489	4024
459.95	4580.6
460.41	5074.4
460.871	5793.1
461.332	6420.5
461.793	7237
462.253	7784.1
462.714	8618.2
463.175	9427.2
463.635	10139.9
464.096	11077.2
464.556	11998
465.017	12609.9
465.478	13156.5
465.938	13718.6
466.398	13965.3
466.859	14210.6
467.319	14439.8
467.78	14648
468.24	14573.3
468.7	14672.6
469.161	14505.2
469.621	14358.2
470.081	14262.4
470.541	14090
471.002	13918
471.462	13677.4
471.922	12887.2
472.382	12204.2
472.842	11505.5
473.302	10735.6
473.762	9846.8
474.222	9225.5
474.682	8665.1
475.142	8127.1
475.602	7686.4
476.062	7191.2
476.522	6616.8
476.982	6026.7
477.442	5457.3
477.901	4958.2
478.361	4620.3
478.821	4167.3
479.281	3785.8
479.74	3448.5
480.2	3239.5
480.659	2939.3
481.119	2661
481.579	2312.4
482.038	1923.7
482.498	1541.9
482.957	1201.9
483.417	991.3
483.876	907.5
484.336	870.5
484.795	859.7
485.254	860.9
485.714	855.5
486.173	852.1
486.632	851.6
487.091	846.7
487.551	844.8
488.01	839.6
488.469	835.2
488.928	838.5
489.387	833
489.846	832.5
490.305	829.4
490.764	830.5
491.223	823.1
491.682	820
492.141	824.8
492.6	825.3
493.059	816.8
493.518	809.8
493.977	815.5
494.436	809.3
494.895	807
495.353	803.2
495.812	806
496.271	806.5
496.729	802.5
497.188	795.8
497.647	800.5
498.105	796.5
498.564	794.4
499.022	792.1
499.481	796.5
499.939	791.2
500.398	790.1
500.856	789
501.315	783.7
501.773	787.4
502.232	783.7
502.69	783.7
503.148	786.5
503.606	787
504.065	783.7
504.523	783.2
504.981	780.9
505.439	788.3
505.897	778
506.356	780.9
506.814	783.3
507.272	782.4
507.73	785.1
508.188	776.6
508.646	785.4
509.104	778.9
509.562	781.9
510.02	782.3
510.477	776.3
510.935	780.5
511.393	775.1
511.851	783.2
512.309	787.4
512.766	780.1
513.224	773
513.682	781.7
514.139	781.4
514.597	776.6
515.055	779.7
515.512	784.1
515.97	780.3
516.427	782.4
516.885	779.7
517.342	784.5
517.8	779.5
518.257	783.5
518.714	782.9
519.172	778.4
519.629	778.7
520.086	778.3
520.544	776.6
521.001	781.3
521.458	781
521.915	777.1
522.373	779.4
522.83	779.6
523.287	776.3
523.744	779.8
524.201	777.8
524.658	780.8
525.115	782
525.572	776.7
526.029	781.1
526.486	782.4
526.943	778.2
527.4	779.6
527.857	771.6
528.313	779.4
528.77	779.6
529.227	773.6
529.684	783
530.14	781.1
530.597	782
531.054	777.9
531.51	779.9
531.967	782.4
532.423	775.9
532.88	774.7
533.337	777.5
533.793	786
534.25	773.1
534.706	783.2
535.162	781
535.619	779.2
536.075	779.1
536.531	774.4
536.988	773.5
537.444	777.9
537.9	778.3
538.356	779
538.813	777.4
539.269	779.8
539.725	779.9
540.181	780.2
540.637	779
541.093	778.7
541.549	774.5
542.005	779.9
542.461	782.9
542.917	773.8
543.373	777.1
543.829	775.9
544.285	780
544.741	779.2
545.197	778.7
545.652	775.8
546.108	775.2
546.564	776.3
547.02	777.9
547.475	776.8
547.931	780
548.387	778.9
548.842	776.8
549.298	777.7
549.753	779.1
550.209	780.4
550.664	776.7
551.12	780.7
551.575	774.5
552.031	776.8
552.486	775
552.941	779.5
553.397	780
553.852	778.7
554.307	779.7
554.762	775
555.218	777.5
555.673	781.3
556.128	771.7
556.583	778.1
557.038	777.7
557.493	772.5
557.948	779.8
558.403	777.7
558.858	774.4
559.313	776.9
559.768	779.5
560.223	778.8
560.678	778.4
561.133	775.1
561.588	778.5
562.043	778
562.497	778.3
562.952	774.5
563.407	778.9
563.862	781.7
564.316	776.7
564.771	776.5
565.226	781
565.68	776.5
566.135	779.1
566.589	777.5
567.044	772.2
567.498	774.2
567.953	776.5
568.407	777.6
568.862	776.4
569.316	779.8
569.77	775.9
570.225	779.7
570.679	773.8
571.133	775
571.587	779.2
572.042	777.5
572.496	772.4
572.95	779.2
573.404	774.5
573.858	779.2
574.312	777.3
574.766	776.8
575.22	781
575.674	781.1
576.128	780
576.582	778.2
577.036	776.7
577.49	773.2
577.944	776.3
578.398	778
578.852	778.2
579.305	779.5
579.759	776.8
580.213	777
580.666	773.4
581.12	776.4
581.574	776
582.027	775.2
582.481	777.3
582.935	779.5
583.388	773.7
583.842	777.7
584.295	772.7
584.748	780.5
585.202	774.8
585.655	776.9
586.109	777.2
586.562	777.6
587.015	781.6
587.469	777.2
587.922	779.2
588.375	778.2
588.828	776
589.281	773.5
589.735	778.9
590.188	772.2
590.641	774.2
591.094	772.8
591.547	776.7
592	775
592.453	780.1
592.906	776.7
593.359	777.9
593.812	779.7
594.265	777.9
594.717	776.5
595.17	780.8
595.623	778.6
596.076	779.8
596.529	779.8
596.981	773.8
597.434	772.1
597.887	777.8
598.339	774.1
598.792	777.7
599.245	779.7
599.697	776.1
600.15	781.5
600.602	776.2
601.055	778.8
601.507	771
601.959	778.6
602.412	781.1
602.864	777.2
603.316	777.4
603.769	775.6
604.221	776.2
604.673	778.3
605.126	779.3
605.578	776.2
606.03	776.2
606.482	779.5
606.934	778
607.386	776.8
607.838	778.5
608.29	772.1
608.742	776.1
609.194	780.5
609.646	779.9
610.098	773.4
610.55	777.6
611.002	774.2
611.454	774.8
611.906	776.6
612.357	771.7
612.809	776.4
613.261	775
613.713	775.5
614.164	772.9
614.616	780
615.068	773.4
615.519	776.7
615.971	777.3
616.422	778.3
616.874	772.4
617.325	776.8
617.777	782.6
618.228	773.8
618.68	774.1
619.131	775.3
619.582	773.6
620.034	780.1
620.485	786.1
620.936	772.1
621.387	777.9
621.839	779.9
622.29	776.8
622.741	775.5
623.192	773.7
623.643	777.6
624.094	775.7
624.545	779
624.996	780.3
625.447	777
625.898	779
626.349	778
626.8	779.3
627.251	779.5
627.702	776.3
628.153	773.1
628.604	776.7
629.054	777
629.505	779.6
629.956	770.2
630.406	775.1
630.857	773.2
631.308	777.4
631.758	777.4
632.209	778.2
632.66	773.7
633.11	771.9
633.561	780.7
634.011	779.4
634.461	774.3
634.912	777
635.362	771.2
635.813	778.5
636.263	775.3
636.713	775.5
637.164	775.7
637.614	772.9
638.064	775.2
638.514	779.2
638.964	777.2
639.415	779.7
639.865	775.2
640.315	776.8
640.765	779.6
641.215	778.6
641.665	775.2
642.115	774.9
642.565	775.4
643.015	780.1
643.465	781
643.915	776.5
644.364	773.4
644.814	780
645.264	775.9
645.714	774.3
646.163	779
646.613	771.9
647.063	774.2
647.513	773.8
647.962	777.3
648.412	780.1
648.861	777.9
649.311	777
649.76	779.8
650.21	777.2
650.659	777.2
651.109	770.5
651.558	771.9
652.008	782.1
652.457	773.7
652.906	774
653.356	776
653.805	779.3
654.254	777.2
654.703	779.7
655.152	780
655.602	778.7
656.051	770.3
656.5	783.1
656.949	776.3
657.398	777.8
657.847	776.7
658.296	779.9
658.745	775.3
659.194	777.7
659.643	776.4
660.092	776.6
660.541	774.9
660.989	776.1
661.438	776.2
661.887	773.6
662.336	777.7
662.784	776.6
663.233	776.3
663.682	777.8
664.13	778.9
664.579	775.5
665.028	775.9
665.476	775.1
665.925	774.6
666.373	777.3
666.822	775.2
667.27	774.5
667.719	774.2
668.167	770.9
668.615	777.5
669.064	776.1
669.512	773.5
669.96	776.3
670.408	777.8
670.857	774.9
671.305	777.6
671.753	777.3
672.201	777.1
672.649	779
673.097	776.1
673.545	779.7
673.993	776.5
674.441	783.2
674.889	775.5
675.337	773.5
675.785	777.8
676.233	775.1
676.681	775.4
677.129	780
677.577	775.8
678.025	777.9
678.472	775.3
678.92	775.5
679.368	776.3
679.815	777.8
680.263	776.7
680.711	773.4
681.158	777.8
681.606	777.4
682.053	776
682.501	771.7
682.948	777.3
683.396	780.6
683.843	776.6
684.291	773.8
684.738	781.4
685.185	779.5
685.633	777.6
686.08	774.8
686.527	773.8
686.974	779
687.422	777.2
687.869	779
688.316	776.9
688.763	776.4
689.21	777
689.657	774.9
690.104	775.5
690.551	776.5
690.998	775.3
691.445	771.3
691.892	772.6
692.339	775.2
692.786	777.2
693.233	778.2
693.68	777
694.127	775.2
694.573	775.5
695.02	779.6
695.467	776
695.913	776.9
696.36	776.3
696.807	778.7
697.253	781.9
697.7	780
698.146	775.9
698.593	778.6
699.039	779.4
699.486	777.1
699.932	778.3
700.379	771.5
700.825	778
701.272	778.6
701.718	777.5
702.164	782.9
702.61	777.9
703.057	774.7
703.503	773.5
703.949	774
704.395	778.8
704.841	780.5
705.287	777.3
705.734	779.4
706.18	776.9
706.626	772.9
707.072	782.8
707.518	775.5
707.964	778.5
708.409	777.1
708.855	779.7
709.301	777.8
709.747	778
710.193	769.3
710.639	776.2
711.084	778
711.53	776.8
711.976	773.7
712.421	771.6
712.867	773.4
713.313	774.4
713.758	776.7
714.204	775.8
714.649	776.9
715.095	777.3
715.54	772.9
715.986	775.3
716.431	776.4
716.877	782.5
717.322	776.9
717.767	776
718.213	778.1
718.658	774.5
719.103	778.7
719.548	777.7
719.994	772.9
720.439	774.9
720.884	775.9
721.329	780.3
721.774	776.5
722.219	770.3
722.664	783.8
723.109	778.1
723.554	774.6
723.999	778.1
724.444	777.3
724.889	778.9
725.334	779.1
725.779	774.5
726.223	780.4
726.668	777.6
727.113	783.8
727.558	774.9
728.002	778.1
728.447	776.1
728.892	781.9
729.336	774.9
729.781	779.8
730.225	780.2
730.67	777.1
731.114	780
731.559	780.6
732.003	776.8
732.448	774.9
732.892	773.8
733.337	778.7
733.781	778.9
734.225	776.4
734.67	776
735.114	780.5
735.558	777.6
736.002	780.4
736.446	777.2
736.891	776.9
737.335	779.7
737.779	780.2
738.223	782.7
738.667	777.9
739.111	773.1
739.555	776.8
739.999	775.7
740.443	778.1
740.887	780
741.33	774.6
741.774	778.3
742.218	778.6
742.662	773.7
743.106	774.5
743.549	771.6
743.993	780.7
744.437	785.9
744.88	779.2
745.324	779
745.768	780.2
746.211	778
746.655	778.2
747.098	777.5
747.542	776.4
747.985	779.5
748.429	773.7
748.872	779.1
749.315	775
749.759	780
750.202	777.7
750.645	778.1
751.089	774.9
751.532	770.4
751.975	774.8
752.418	773.4
752.861	779.9
753.305	777
753.748	778.1
754.191	778.6
754.634	779.6
755.077	777.2
755.52	775.1
755.963	775
756.406	775.7
756.849	774.6
757.291	775.1
757.734	781
758.177	778.2
758.62	779.3
759.063	777.8
759.505	775.4
759.948	781.6
760.391	778.1
760.833	773.3
761.276	776.5
761.719	774
762.161	777.8
762.604	777.8
763.046	776.3
763.489	779.3
763.931	775
764.374	775.8
764.816	773.1
765.258	774.1
765.701	780.9
766.143	778.6
766.585	776.1
767.028	775.2
767.47	777.1
767.912	774.6
768.354	776.4
768.796	779.6
769.238	781
769.681	781.9
770.123	779.1
770.565	779.2
771.007	778.4
771.449	775.7
771.891	777.3
772.333	772
772.774	780
773.216	778.2
773.658	772.9
774.1	776.8
774.542	779.4
774.984	779.7
775.425	773.5
775.867	776.8
776.309	775.6
776.75	775.4
777.192	776.8
777.634	773.5
778.075	777.4
778.517	775.6
778.958	779.7
779.4	773.2
779.841	780.7
780.283	783
780.724	776.1
781.165	781.2
781.607	775.4
782.048	782.1
782.489	780.3
782.931	779.3
783.372	774.6
783.813	780.3
784.254	772.3
784.695	783.2
785.136	781
785.578	774.4
786.019	777.1
786.46	774.3
786.901	779
787.342	777
787.783	778.3
788.224	777.7
788.664	779.9
789.105	776.7
789.546	777.3
789.987	778.5
790.428	783.1
790.869	780.4
791.309	776
791.75	777.1
792.191	779.6
792.631	773
793.072	777.4
793.513	776.9
793.953	776
794.394	779.1
794.834	777.1
795.275	777.8
795.715	776.9
796.156	776.8
796.596	777.3
797.036	772
797.477	776.5
797.917	772.8
798.357	773.1
798.798	774.6
799.238	774.9
799.678	777.4
800.118	780.2
800.558	778.5
800.998	774.8
801.439	780.2
801.879	779.8
802.319	773.9
802.759	775.8
803.199	776.1
803.639	777.9
804.079	775.8
804.518	776
804.958	779
805.398	775.8
805.838	772.5
806.278	777.7
806.718	774.4
807.157	778.1
807.597	777.1
808.037	775
808.476	776.3
808.916	779.5
809.356	777.7
809.795	774
810.235	775.6
810.674	774.8
811.114	779.9
811.553	780.1
811.993	775.5
812.432	778.7
812.871	778.6
813.311	775.4
813.75	773.7
814.189	781
814.629	778.8
815.068	773.3
815.507	779.2
815.946	777.3
816.385	777.7
816.824	776.2
817.263	779.3
817.703	777
818.142	776.9
818.581	773.3
819.02	779.9
819.459	779.8
819.897	776.6
820.336	777.5
820.775	777.4
821.214	774.8
821.653	778
822.092	778.6
822.53	782.3
822.969	778.2
823.408	772.1
823.847	776.9
824.285	775.4
824.724	777
825.162	777.6
825.601	778.3
826.04	779.4
826.478	777.3
826.916	775.7
827.355	775.1
827.793	778.5
828.232	779.7
828.67	775.9
829.108	777.3
829.547	776.7
829.985	777.7
830.423	779.2
830.862	778.3
831.3	778.7
831.738	778.1
832.176	782.4
832.614	774.6
833.052	778.8
833.49	778.7
833.928	773.1
834.366	777.2
834.804	776.9
835.242	774.3
835.68	776.9
836.118	776.9
836.556	776.7
836.994	780
837.432	775.3
837.869	779.6
838.307	778.2
838.745	776.4
839.183	776.9
839.62	777.5
840.058	776.3
840.496	779.5
840.933	773.4
841.371	782.3
841.808	776.5
842.246	775.7
842.683	779.9
843.121	776.3
843.558	776.8
843.995	778
844.433	772.8
844.87	779.3
845.307	779.9
845.745	772.9
846.182	770.3
846.619	771.3
847.056	777.3
847.494	777.9
847.931	777.9
848.368	776
848.805	781.8
849.242	772.8
849.679	778.1
850.116	781.2
850.553	777.8
850.99	777
851.427	779
851.864	778.6
852.301	779.4
852.737	775.9
853.174	774.4
853.611	776
854.048	776.1
854.484	780.9
854.921	778.3
855.358	779.8
855.794	777.9
856.231	770.4
856.668	774.2
857.104	775.9
857.541	777.5
857.977	778
858.414	780.3
858.85	777.3
859.286	778.8
859.723	777.5
860.159	777.9
860.596	777.4
861.032	775.8
861.468	776.4
861.904	778.7
862.341	776.7
862.777	780.8
863.213	780.7
863.649	777.1
864.085	777.2
864.521	774.1
864.957	784.4
865.393	781
865.829	772
866.265	776.4
866.701	778.2
867.137	775.7
867.573	775.9
868.009	772.9
868.445	780.5
868.88	779.7
869.316	779
869.752	779.6
870.188	778.2
870.623	775.8
871.059	781.4
871.495	776.4
871.93	781.5
872.366	778.5
872.801	776.1
873.237	775.2
873.672	778.5
874.108	774.1
874.543	777.2
874.979	779.1
875.414	776.8
875.849	775.2
876.285	773.4
876.72	781.9
877.155	776.5
877.59	774.9
878.026	778.6
878.461	778.5
878.896	775.8
879.331	780.4
879.766	773.3
880.201	779.2
880.636	778.2
881.071	772.6
881.506	782.1
881.941	776.4
882.376	780
882.811	782.3
883.246	769.4
883.681	779.3
884.116	776.6
884.55	779.7
884.985	780.9
885.42	771.7
885.855	775.6
886.289	777.5
886.724	777.2
887.159	774.1
887.593	779.6
888.028	778.2
888.462	782.8
888.897	773.9
889.331	779.5
889.766	780.2
890.2	777.6
890.634	775
891.069	778.6
891.503	777.6
891.937	780.9
892.372	779.5
892.806	780.5
893.24	779
893.674	776.7
894.109	773.2
894.543	777.8
894.977	779.8
895.411	777.6
895.845	779.9
896.279	776.4
896.713	771.6
897.147	776.3
897.581	773.8
898.015	776
898.449	776.8
898.883	774.3
899.316	779.2
899.75	773.2
900.184	772.9
900.618	775.4
901.051	777.7
901.485	777.3
901.919	777.9
902.352	779.9
902.786	779.1
903.22	774
903.653	776.1
904.087	779.2
904.52	777.1
904.954	776.8
905.387	776.5
905.82	778
906.254	776.5
906.687	776.8
907.121	781
907.554	776.8
907.987	778.8
908.42	778
908.854	775
909.287	781.5
909.72	774.8
910.153	773.3
910.586	778.4
911.019	778.3
911.452	774.8
911.885	775.7
912.318	774
912.751	776
913.184	780.9
913.617	774.9
914.05	775.3
914.483	778.8
914.916	774.8
915.348	778.5
915.781	774.7
916.214	773.8
916.647	777
917.079	773.9
917.512	774
917.944	774.6
918.377	777.4
918.81	773.6
919.242	778.7
919.675	780
920.107	775.6
920.54	777.2
920.972	782.3
921.404	777.9
921.837	776.3
922.269	776.1
922.701	777.2
923.134	775.1
923.566	776.1
923.998	781.8
924.43	773.4
924.863	774.6
925.295	777.3
925.727	778.4
926.159	779.3
926.591	774.9
927.023	774.3
927.455	778.7
927.887	773.8
928.319	776.5
928.751	773.8
929.183	780.6
929.615	781.6
930.046	779.6
930.478	780
930.91	777.6
931.342	774.2
931.773	777.2
932.205	773.9
932.637	775.7
933.068	780.1
933.5	776
933.932	774.2
934.363	774.8
934.795	774.4
935.226	775.8
935.658	777
936.089	780
936.521	777.1
936.952	774.2
937.383	775.5
937.815	775.9
938.246	778.9
938.677	778.6
939.108	777.2
939.54	775.5
939.971	777.8
940.402	777.1
940.833	774.3
941.264	774.3
941.695	777
942.126	780.1
942.557	775.3
942.988	774.8
943.419	782.9
943.85	777.7
944.281	777.5
944.712	782.1
945.143	777.3
945.574	774.3
946.004	776.3
946.435	776.6
946.866	772
947.297	773.9
947.727	777.1
948.158	776.7
948.588	772.5
949.019	777.5
949.45	771.7
949.88	777.1
950.311	775.5
950.741	780
951.172	779.4
951.602	776.4
952.032	771.9
952.463	777.5
952.893	778.4
953.323	777.1
953.754	785.8
954.184	780.4
954.614	780.7
955.044	775.9
955.475	778
955.905	778.6
956.335	780.1
956.765	776.6
957.195	778.4
957.625	780.3
958.055	780.7
958.485	779.4
958.915	774.6
959.345	777.2
959.775	779.1
960.204	776.6
960.634	775.6
961.064	773.6
961.494	774.7
961.924	771.9
962.353	775.3
962.783	774.5
963.213	772.6
963.642	773.7
964.072	779.7
964.501	773.4
964.931	777.3
965.361	775.6
965.79	770.8
966.219	778.5
966.649	776.5
967.078	770.4
967.508	778.7
967.937	779
968.366	772.9
968.796	775.5
969.225	773.1
969.654	780.2
970.083	776.3
970.513	767.6
970.942	777.2
971.371	777
971.8	775.1
972.229	776.1
972.658	778.1
973.087	775.6
973.516	781.2
973.945	776.1
974.374	773.9
974.803	776.4
975.232	775.9
975.66	777
976.089	772.7
976.518	773.7
976.947	780.8
977.375	774.2
977.804	777.2
978.233	774.3
978.661	775.5
979.09	777.9
979.519	777.1
979.947	780.9
980.376	780.1
980.804	779.1
981.233	775.1
981.661	781
982.09	775.9
982.518	779.6
982.946	778
983.375	773.9
983.803	776.8
984.231	775.6
984.659	775
985.088	780.5
985.516	772.8
985.944	775.2
986.372	776.5
986.8	776
987.228	774.5
987.656	775.5
988.084	777.9
988.512	776.8
988.94	777.1
989.368	773.8
989.796	775.2
990.224	773.2
990.652	776.9
991.08	776.8
991.507	771.5
991.935	776.4
992.363	777.8
992.791	774.2
993.218	777.3
993.646	773.2
994.074	780.1
994.501	775.6
994.929	776.8
995.356	776.1
995.784	775.7
996.211	776.9
996.639	776.9
997.066	778.8
997.493	776.5
997.921	773.7
998.348	772
998.775	777.1
999.203	782.3
999.63	776.3
1000.057	781.3
1000.484	775.6
1000.912	774.6
1001.339	779.4
1001.766	775.8
1002.193	777.8
1002.62	781.3
1003.047	776.4
1003.474	778.1
1003.901	770.8
1004.328	773.2
1004.755	775.4
1005.182	771.4
1005.608	776.4
1006.035	778.8
1006.462	774.9
1006.889	777.6
1007.316	774.6
1007.742	775.2
1008.169	779.8
1008.596	779.8
1009.022	774.3
1009.449	774
1009.875	775.1
1010.302	777.8
1010.728	774.9
1011.155	779.4
1011.581	776.4
1012.008	777.8
1012.434	779.5
1012.861	777.6
1013.287	776.6
1013.713	780.2
1014.139	775.4
1014.566	777.4
1014.992	773.2
1015.418	774
1015.844	779.1
1016.27	775.5
1016.697	781
1017.123	778.2
1017.549	776
1017.975	775.2
1018.401	774.4
1018.827	771.4
1019.253	777.1
1019.679	777.8
1020.104	776.8
1020.53	777.8
1020.956	775.6
1021.382	771.7
1021.808	776.9
1022.233	775.2
1022.659	773.7
1023.085	777
1023.51	775.5
1023.936	774.4
1024.362	773.6
1024.787	776.5
1025.213	777.9
1025.638	775.7
1026.064	776.8
1026.489	778.8
1026.915	777.6
1027.34	775.6
1027.765	776.1
1028.191	779.6
1028.616	775.2
1029.041	774.1
1029.467	775.5
1029.892	774.6
1030.317	768
1030.742	777
1031.167	775.1
1031.592	774.2
1032.018	771.7
1032.443	774.6
1032.868	771.1
1033.293	775.7
1033.718	774.7
1034.143	778.4
1034.567	773.2
1034.992	777.2
1035.417	774.1
1035.842	776.6
1036.267	775.6
1036.692	773.1
1037.116	774.6
1037.541	775
1037.966	775.4
1038.39	777.4
1038.815	779.5
1039.24	776.8
1039.664	776.8
1040.089	775.2
1040.513	774.5
1040.938	779.4
1041.362	774.5
1041.787	773.8
1042.211	776
1042.635	779.2
1043.06	780.7
1043.484	772.7
1043.908	772.8
1044.333	774.5
1044.757	781.3
1045.181	776.5
1045.605	775.3
1046.029	778.9
1046.454	784.1
1046.878	780.9
1047.302	774.2
1047.726	770.3
1048.15	774.6
1048.574	774.4
1048.998	774.2
1049.422	778
1049.845	771.6
1050.269	774.9
1050.693	775.1
1051.117	772.6
1051.541	774.7
1051.964	775
1052.388	774.9
1052.812	776.4
1053.235	773.9
1053.659	776.2
1054.083	774.6
1054.506	774.4
1054.93	779.8
1055.353	776.4
1055.777	775.1
1056.2	775.1
1056.624	777.7
1057.047	774.1
1057.471	779.2
1057.894	774.2
1058.317	777.1
1058.74	772.3
1059.164	776.3
1059.587	772.4
1060.01	771.2
1060.433	770.9
1060.856	773
1061.28	778.2
1061.703	774.2
1062.126	779.3
1062.549	773.2
1062.972	775.5
1063.395	772.4
1063.818	778.1
1064.241	773.5
1064.663	772.3
1065.086	776.4
1065.509	775.9
1065.932	778
1066.355	775.8
1066.777	777.4
1067.2	775.5
1067.623	776.1
1068.046	772.6
1068.468	777.4
1068.891	774.8
1069.313	775.2
1069.736	772.7
1070.158	775.3
1070.581	777.3
1071.003	775.1
1071.426	773.8
1071.848	777
1072.271	773.2
1072.693	780.3
1073.115	777.6
1073.538	776.1
1073.96	772.6
1074.382	778.3
1074.804	775
1075.226	776.5
1075.649	778.6
1076.071	773.3
1076.493	773
1076.915	772.2
1077.337	776.2
1077.759	779.1
1078.181	773.7
1078.603	772.6
1079.025	774
1079.447	771.9
1079.868	775.1
1080.29	775.7
1080.712	773.9
1081.134	780.8
1081.556	774.3
1081.977	770.5
1082.399	777.2
1082.821	779
1083.242	777.3
1083.664	772.9
1084.085	777
1084.507	776
1084.928	775.5
1085.35	776.9
1085.771	770.8
1086.193	773.6
1086.614	776
1087.036	776
1087.457	776.5
1087.878	781.3
1088.3	775.4
1088.721	776.6
1089.142	775.1
1089.563	772.8
1089.984	772.9
1090.406	772.7
1090.827	775.3
1091.248	770.8
1091.669	776.6
1092.09	775
1092.511	775.8
1092.932	772.7
1093.353	777.9
1093.774	774.4
1094.195	773.7
1094.615	776.6
1095.036	780.2
1095.457	774
1095.878	778.2
1096.299	772.9
1096.719	776.3
1097.14	777.6
1097.561	771.3
1097.981	773.9
1098.402	770.6
1098.822	777
1099.243	777.5
1099.663	775.7
1100.084	770.6
1100.504	774.2
1100.925	769.5
1101.345	775.8
1101.766	774.7
1102.186	774.7
1102.606	774.3
1103.026	778.9
1103.447	773.7
1103.867	777.2
1104.287	770.5
1104.707	769.9
