节点UV_HRD08281_00017.txt的数据
Date: Wed Jan 15 10:36:31 CST 2020
User: lab329
Spectrometer: HR+D0828
触发模式: 0
积分时间 (秒): 4.000000E-3
Scans to average: 10
启用暗噪声校正: false
启用非线性校正: false
滑动平均宽度: 0
X轴模式: Wavelengths
Number of Pixels in Spectrum: 2048
>>>>>Begin Spectral Data<<<<<
186.281	777.3
186.758	777.3
187.234	777.3
187.71	776.1
188.187	783.5
188.663	781
189.139	775.3
189.615	784
190.091	779.1
190.567	780.2
191.043	781.9
191.519	784.4
191.995	782.9
192.471	778.9
192.947	778.2
193.423	777.3
193.899	779.4
194.375	781.6
194.851	783.1
195.327	779.6
195.803	783
196.278	780.2
196.754	776
197.23	775.7
197.706	777.7
198.181	780.2
198.657	781.9
199.133	777.2
199.608	784.2
200.084	775.7
200.559	780.7
201.035	785.7
201.51	776.1
201.986	776.4
202.461	778.4
202.937	777
203.412	777
203.887	776.8
204.363	778.1
204.838	779.4
205.313	777.3
205.789	780.3
206.264	781.3
206.739	778.3
207.214	781.2
207.689	781.1
208.165	774.3
208.64	782.9
209.115	779.2
209.59	775.9
210.065	779.9
210.54	777.5
211.015	782.2
211.49	779.6
211.965	771.5
212.44	780
212.914	776.2
213.389	775.3
213.864	779.5
214.339	774.4
214.814	783
215.288	783.6
215.763	774.5
216.238	782.4
216.712	780
217.187	776
217.662	782.4
218.136	776.2
218.611	780.8
219.085	781
219.56	776.2
220.034	778.3
220.509	774.3
220.983	777.8
221.458	780.3
221.932	778.8
222.406	776.2
222.881	779.2
223.355	783.1
223.829	778.8
224.303	784.1
224.778	775.4
225.252	781.3
225.726	781.2
226.2	778.6
226.674	784.3
227.148	773.8
227.622	780.2
228.096	783
228.57	779.1
229.044	777.7
229.518	777.5
229.992	781.9
230.466	789.2
230.94	775.9
231.414	779
231.888	777.2
232.361	775.9
232.835	782.5
233.309	771.8
233.783	776.3
234.256	784.4
234.73	777.8
235.204	782.3
235.677	779.9
236.151	778.6
236.624	782.2
237.098	778.8
237.571	775.9
238.045	781.9
238.518	777.3
238.992	777.8
239.465	785.5
239.939	775.6
240.412	784.2
240.885	776.9
241.359	778.5
241.832	780.7
242.305	780.9
242.778	783.7
243.251	782.9
243.725	775.7
244.198	781.7
244.671	774.1
245.144	780.4
245.617	783.7
246.09	781.5
246.563	777.3
247.036	785.5
247.509	776.7
247.982	774.5
248.455	781.5
248.928	777.6
249.4	778.8
249.873	776.8
250.346	777.6
250.819	783.4
251.292	779.1
251.764	781.9
252.237	780.5
252.71	779.5
253.182	780
253.655	778.8
254.127	775.5
254.6	784.9
255.073	777.9
255.545	781.6
256.018	779.4
256.49	782.8
256.962	779.1
257.435	781.2
257.907	775.7
258.379	788.1
258.852	780.4
259.324	775.9
259.796	780.9
260.269	776.6
260.741	780
261.213	781.7
261.685	778.9
262.157	789.3
262.629	782.8
263.101	778.7
263.574	785.2
264.046	777
264.518	786.1
264.99	783
265.461	782.2
265.933	781.9
266.405	772.9
266.877	781.1
267.349	780.4
267.821	778.6
268.293	784.4
268.764	781.8
269.236	778.6
269.708	783.7
270.18	781.8
270.651	781.9
271.123	789.9
271.594	780.3
272.066	781.1
272.538	779.5
273.009	779.3
273.481	780.4
273.952	780.7
274.423	778.6
274.895	788.5
275.366	776.8
275.838	777.2
276.309	781.4
276.78	778.2
277.252	779.5
277.723	777.1
278.194	779.2
278.665	781.1
279.136	778.4
279.608	782.1
280.079	781.5
280.55	779.7
281.021	782.5
281.492	786.6
281.963	779.5
282.434	786.4
282.905	778.5
283.376	781.5
283.847	786.2
284.318	780.3
284.789	784.7
285.259	778.1
285.73	780.9
286.201	778.4
286.672	776.2
287.143	776.5
287.613	784.3
288.084	776.6
288.555	777.9
289.025	782.6
289.496	778.3
289.966	779.4
290.437	780.2
290.907	781.2
291.378	788.1
291.848	781.4
292.319	777.4
292.789	781.7
293.26	781.9
293.73	784.2
294.2	784.3
294.671	775.9
295.141	781.3
295.611	777.6
296.081	782.2
296.552	784.2
297.022	779.2
297.492	783.9
297.962	779.9
298.432	782.4
298.902	784.3
299.372	781.5
299.842	781.2
300.312	785.1
300.782	774.3
301.252	780.9
301.722	779
302.192	772.8
302.662	781.3
303.132	780.7
303.602	776.3
304.071	785.1
304.541	777.6
305.011	783.3
305.481	782.6
305.95	778.2
306.42	780
306.889	782.8
307.359	782.6
307.829	783.1
308.298	774.4
308.768	779
309.237	780.5
309.707	781.6
310.176	782.9
310.645	778.6
311.115	781.4
311.584	782.6
312.054	779.6
312.523	779.1
312.992	783.8
313.461	783.2
313.931	781.5
314.4	783.5
314.869	777.1
315.338	787.1
315.807	778.3
316.276	781.3
316.745	785.5
317.214	775.5
317.683	776.9
318.152	781.7
318.621	782.8
319.09	783.2
319.559	781
320.028	777.8
320.497	781.1
320.966	775.2
321.435	779.8
321.903	784.8
322.372	779.5
322.841	784.3
323.31	782.3
323.778	781.5
324.247	783.3
324.715	773.9
325.184	783.7
325.653	781.2
326.121	778.7
326.59	779.3
327.058	783.7
327.527	780.7
327.995	786.8
328.463	773.8
328.932	784.9
329.4	784.5
329.868	778.3
330.337	786.3
330.805	784.3
331.273	781.7
331.741	783.8
332.21	781.2
332.678	784.3
333.146	782.5
333.614	779.7
334.082	780
334.55	783.6
335.018	776.2
335.486	781.4
335.954	779
336.422	776.9
336.89	785.9
337.358	776.2
337.826	781.9
338.294	780.7
338.762	778.9
339.229	783
339.697	780.3
340.165	776.9
340.633	783.5
341.1	775
341.568	781.5
342.035	786.3
342.503	783.4
342.971	781.3
343.438	779.9
343.906	778.1
344.373	786.9
344.841	776.9
345.308	782.1
345.776	786
346.243	776.8
346.71	786.1
347.178	784.6
347.645	779.3
348.112	784.6
348.58	781.4
349.047	777.7
349.514	788
349.981	784.1
350.448	781.5
350.915	782.2
351.383	778.8
351.85	784.9
352.317	778.2
352.784	782
353.251	785.6
353.718	779
354.185	778.1
354.651	784.4
355.118	780
355.585	785.8
356.052	780
356.519	783.8
356.986	782.9
357.452	774.9
357.919	783.9
358.386	784.8
358.853	780.5
359.319	780.3
359.786	776.6
360.252	778.3
360.719	782.1
361.185	781
361.652	781.7
362.118	784.2
362.585	781.8
363.051	781.7
363.518	785.8
363.984	781.4
364.451	790.5
364.917	780.3
365.383	777.6
365.849	789.4
366.316	778.2
366.782	780.6
367.248	784.2
367.714	780.9
368.18	784.7
368.647	779.4
369.113	778.5
369.579	787.4
370.045	782.2
370.511	783.5
370.977	779.8
371.443	782.1
371.909	788.9
372.374	787
372.84	780
373.306	785.4
373.772	782.4
374.238	785.6
374.704	782.6
375.169	777.2
375.635	781.2
376.101	782.5
376.566	786.1
377.032	788.1
377.498	782
377.963	780.6
378.429	785.1
378.894	775.9
379.36	784
379.825	780.7
380.291	782.8
380.756	787.3
381.222	777.6
381.687	781
382.152	791.3
382.618	784
383.083	782.6
383.548	782.4
384.013	781.1
384.479	785.1
384.944	780.4
385.409	779.3
385.874	788.3
386.339	779.9
386.804	780.6
387.269	783.3
387.734	778.9
388.199	792.1
388.664	782.7
389.129	782.5
389.594	788.8
390.059	783.5
390.524	781.9
390.989	784.5
391.453	784.2
391.918	784.9
392.383	788.5
392.848	782
393.312	788.6
393.777	786.3
394.242	787.5
394.706	791.1
395.171	789.8
395.635	790.3
396.1	783.5
396.565	784.1
397.029	789.7
397.493	785.2
397.958	789.7
398.422	787.5
398.887	781.7
399.351	788.3
399.815	785.1
400.28	782.4
400.744	789.4
401.208	784.4
401.672	786.9
402.137	789.7
402.601	786.7
403.065	787.7
403.529	790
403.993	789.6
404.457	791.8
404.921	792.2
405.385	789.6
405.849	795
406.313	789.4
406.777	795
407.241	797
407.705	794.1
408.169	799
408.632	793.1
409.096	795
409.56	808.7
410.024	803.5
410.487	801.7
410.951	808.7
411.415	805.2
411.878	811.3
412.342	815.6
412.806	813.4
413.269	816.9
413.733	817.2
414.196	825.3
414.66	837.4
415.123	836.3
415.587	846.1
416.05	859.5
416.513	873.3
416.977	897.4
417.44	926.2
417.903	967.7
418.366	1022.6
418.83	1092.4
419.293	1196.5
419.756	1330.9
420.219	1503.6
420.682	1726.2
421.145	1998.8
421.608	2337.3
422.072	2759.6
422.535	3301
422.998	3943.1
423.46	4719.8
423.923	5482.9
424.386	6395.9
424.849	7373.4
425.312	8295
425.775	9453.3
426.238	10481.3
426.7	11427
427.163	12275.9
427.626	12908.3
428.089	13534.6
428.551	13788.6
429.014	13932.9
429.477	13935.6
429.939	13631.6
430.402	13195.5
430.864	12874.7
431.327	12285.8
431.789	11595.4
432.252	10892.1
432.714	10110.7
433.176	9251.8
433.639	8457.9
434.101	7697.6
434.563	7022.5
435.026	6167
435.488	5539.5
435.95	4846.5
436.412	4139
436.875	3587.2
437.337	3207.9
437.799	2860
438.261	2482.5
438.723	2200.6
439.185	1958
439.647	1760.1
440.109	1587.9
440.571	1442.6
441.033	1326
441.495	1236.4
441.957	1160.5
442.419	1087.6
442.881	1046.8
443.342	1014.3
443.804	981.3
444.266	955.5
444.728	936
445.189	915
445.651	906.8
446.113	886.3
446.574	876.8
447.036	875.6
447.497	868.5
447.959	859.9
448.421	857.8
448.882	848.1
449.343	851.4
449.805	843.7
450.266	843.8
450.728	841.3
451.189	833.1
451.65	832
452.112	826.8
452.573	820.9
453.034	825.6
453.495	815.3
453.957	809.3
454.418	818.1
454.879	808.8
455.34	814.6
455.801	815.8
456.262	807.5
456.723	808.1
457.184	805.1
457.645	800.2
458.106	807.3
458.567	800.5
459.028	803.5
459.489	806
459.95	796.5
460.41	801.7
460.871	806.5
461.332	795.3
461.793	796.5
462.253	790.9
462.714	797
463.175	797
463.635	793.2
464.096	794.7
464.556	797.2
465.017	789.9
465.478	797.2
465.938	796
466.398	793.4
466.859	801.8
467.319	791.6
467.78	789.1
468.24	791.2
468.7	796.4
469.161	793.7
469.621	791.4
470.081	794.5
470.541	800.5
471.002	796.3
471.462	790.5
471.922	801.3
472.382	796.2
472.842	793.9
473.302	792.6
473.762	788.7
474.222	794.8
474.682	788.4
475.142	792.7
475.602	801.3
476.062	792.2
476.522	793.2
476.982	798.6
477.442	801.1
477.901	801
478.361	797.2
478.821	794.7
479.281	795.6
479.74	794.5
480.2	801.3
480.659	801.5
481.119	795.1
481.579	795.6
482.038	790.9
482.498	794.9
482.957	792.6
483.417	779.1
483.876	778.8
484.336	781.7
484.795	777.4
485.254	778.5
485.714	779.8
486.173	779.8
486.632	781.5
487.091	776
487.551	783.2
488.01	782
488.469	777
488.928	776.8
489.387	779
489.846	779.4
490.305	782.6
490.764	774.7
491.223	780.8
491.682	782.1
492.141	778
492.6	785
493.059	776.6
493.518	779.8
493.977	780.3
494.436	774.2
494.895	775.3
495.353	779
495.812	777.6
496.271	776.8
496.729	781.3
497.188	777.5
497.647	784.7
498.105	779.5
498.564	777.7
499.022	776
499.481	774.9
499.939	776.3
500.398	782.4
500.856	777.8
501.315	779.9
501.773	778.3
502.232	781.1
502.69	781.9
503.148	773
503.606	781.5
504.065	780
504.523	778.1
504.981	779.5
505.439	778.5
505.897	773.2
506.356	783.6
506.814	772.8
507.272	774.5
507.73	778.3
508.188	777
508.646	778.7
509.104	783.4
509.562	776.8
510.02	782.4
510.477	775.6
510.935	775.3
511.393	779.2
511.851	775.6
512.309	775.4
512.766	782.7
513.224	776.6
513.682	781.3
514.139	773.6
514.597	775
515.055	782.6
515.512	775.6
515.97	774.4
516.427	777.7
516.885	774.8
517.342	777.8
517.8	777.9
518.257	774.5
518.714	783.6
519.172	776.3
519.629	776.9
520.086	774.4
520.544	774.6
521.001	778.3
521.458	774.9
521.915	774.5
522.373	777.9
522.83	775.1
523.287	774.5
523.744	775.8
524.201	777.8
524.658	776
525.115	777.8
525.572	775.7
526.029	781.7
526.486	773.7
526.943	779.1
527.4	780.3
527.857	777.9
528.313	778.2
528.77	779.3
529.227	772
529.684	777.8
530.14	771.9
530.597	776.4
531.054	779.8
531.51	776.2
531.967	781.5
532.423	784.4
532.88	776.1
533.337	779.5
533.793	774.5
534.25	775.4
534.706	780.3
535.162	774.5
535.619	777.2
536.075	779.3
536.531	777
536.988	780.5
537.444	772.7
537.9	772
538.356	787.1
538.813	777.4
539.269	778.5
539.725	777.2
540.181	775.6
540.637	780.9
541.093	775.4
541.549	775.6
542.005	781.2
542.461	775.2
542.917	774.4
543.373	779.6
543.829	776
544.285	778.1
544.741	778.9
545.197	775.8
545.652	780.6
546.108	775.4
546.564	772.1
547.02	784.6
547.475	776
547.931	779.1
548.387	777.7
548.842	773.1
549.298	777.9
549.753	769.3
550.209	771.8
550.664	777.1
551.12	778.6
551.575	777.7
552.031	781.4
552.486	776.9
552.941	781
553.397	777.7
553.852	773.3
554.307	779.5
554.762	771.1
555.218	774.3
555.673	783.7
556.128	778.6
556.583	782.5
557.038	777.8
557.493	776.4
557.948	783.5
558.403	772.7
558.858	773.3
559.313	776.9
559.768	772.5
560.223	778.4
560.678	774.8
561.133	779.9
561.588	781.3
562.043	773.1
562.497	777.8
562.952	778.9
563.407	777.5
563.862	773.2
564.316	781.2
564.771	778.7
565.226	779.7
565.68	775.2
566.135	770.9
566.589	781.2
567.044	773.4
567.498	782.2
567.953	779
568.407	777.7
568.862	781.5
569.316	773
569.77	774.3
570.225	779
570.679	774.2
571.133	776.1
571.587	775.5
572.042	773.9
572.496	776.8
572.95	777.5
573.404	773
573.858	777.5
574.312	779.5
574.766	778.4
575.22	780.2
575.674	771.4
576.128	777.6
576.582	779.1
577.036	778.9
577.49	783.1
577.944	777.2
578.398	772.8
578.852	778.1
579.305	774.2
579.759	778.7
580.213	776.8
580.666	771.5
581.12	780.1
581.574	778.1
582.027	776.7
582.481	781.4
582.935	775.7
583.388	782.3
583.842	776.5
584.295	775.2
584.748	780.8
585.202	776.9
585.655	771.2
586.109	775.9
586.562	772.5
587.015	774.7
587.469	778.8
587.922	778.3
588.375	779.2
588.828	777.1
589.281	774.4
589.735	782
590.188	774.1
590.641	778.4
591.094	783
591.547	777.7
592	781.9
592.453	780.8
592.906	772.8
593.359	777.6
593.812	780.4
594.265	774.7
594.717	779.3
595.17	774.5
595.623	776.4
596.076	778
596.529	772
596.981	782.1
597.434	770.6
597.887	770.6
598.339	780.4
598.792	776.5
599.245	774.6
599.697	772.9
600.15	775.9
600.602	779.1
601.055	776.5
601.507	776.3
601.959	781.6
602.412	774.4
602.864	778.5
603.316	773.9
603.769	773.8
604.221	773.2
604.673	776
605.126	772.1
605.578	781.9
606.03	772
606.482	777.6
606.934	778
607.386	773.6
607.838	774.3
608.29	777
608.742	771.7
609.194	781.3
609.646	776.3
610.098	779
610.55	778.1
611.002	773.6
611.454	768.6
611.906	778.3
612.357	776.8
612.809	779.9
613.261	774.3
613.713	775.7
614.164	780.7
614.616	774.8
615.068	777.8
615.519	777.9
615.971	776.6
616.422	778.4
616.874	771.9
617.325	771.1
617.777	779.2
618.228	774.2
618.68	776.6
619.131	775.3
619.582	778.9
620.034	779.3
620.485	771
620.936	777.9
621.387	778.5
621.839	773.8
622.29	777.9
622.741	776
623.192	777
623.643	773.4
624.094	774.3
624.545	770.4
624.996	779.9
625.447	777.9
625.898	775.5
626.349	779.6
626.8	775.1
627.251	779.1
627.702	780.7
628.153	771.9
628.604	779.6
629.054	774.3
629.505	778.1
629.956	781.3
630.406	768.7
630.857	770.5
631.308	769.7
631.758	775.5
632.209	781.5
632.66	780.8
633.11	776.9
633.561	779.9
634.011	777.6
634.461	776.2
634.912	776.7
635.362	774.9
635.813	779.3
636.263	775.5
636.713	776.2
637.164	781.1
637.614	774.3
638.064	769.9
638.514	776.6
638.964	775.2
639.415	776.1
639.865	774
640.315	776.4
640.765	782.7
641.215	775.2
641.665	776.9
642.115	776.7
642.565	774.5
643.015	777.3
643.465	776.2
643.915	776.8
644.364	778.1
644.814	772.2
645.264	772.1
645.714	777.1
646.163	776.7
646.613	771.3
647.063	774.6
647.513	769.6
647.962	778.8
648.412	777.3
648.861	777.6
649.311	780.3
649.76	773.1
650.21	778.3
650.659	777.7
651.109	769.1
651.558	777.5
652.008	775.5
652.457	773.8
652.906	780.8
653.356	777.5
653.805	775.1
654.254	780.2
654.703	770.9
655.152	775.7
655.602	773.7
656.051	771.7
656.5	780
656.949	777.4
657.398	773.3
657.847	779.4
658.296	775.4
658.745	776.3
659.194	777.9
659.643	775.7
660.092	779.2
660.541	776.2
660.989	769.9
661.438	776.5
661.887	772.4
662.336	778.3
662.784	778
663.233	777.5
663.682	783.4
664.13	776.2
664.579	773.2
665.028	777
665.476	774.9
665.925	775.6
666.373	775.6
666.822	774
667.27	775.7
667.719	774
668.167	776.8
668.615	781.2
669.064	777.8
669.512	778.4
669.96	776.9
670.408	772.6
670.857	778.2
671.305	778
671.753	777.3
672.201	776.4
672.649	771.9
673.097	773.7
673.545	777.7
673.993	778.3
674.441	775.5
674.889	779.2
675.337	774.7
675.785	781.6
676.233	774.4
676.681	775.3
677.129	783
677.577	773.4
678.025	778.9
678.472	779.2
678.92	768.4
679.368	774.4
679.815	775.2
680.263	775.9
680.711	783.5
681.158	774.7
681.606	774.1
682.053	777.9
682.501	775.4
682.948	783
683.396	777.3
683.843	774.5
684.291	780
684.738	770.9
685.185	774.7
685.633	779.5
686.08	776.1
686.527	775
686.974	776.4
687.422	776.6
687.869	777
688.316	779.9
688.763	773.4
689.21	775.3
689.657	772.2
690.104	774.3
690.551	775.5
690.998	774.5
691.445	774.2
691.892	774
692.339	776.9
692.786	777.1
693.233	772.5
693.68	776.4
694.127	778.7
694.573	775.3
695.02	781.2
695.467	777.6
695.913	771.8
696.36	778.7
696.807	775.2
697.253	776.8
697.7	777.7
698.146	773.2
698.593	777.1
699.039	777.3
699.486	769.6
699.932	782.2
700.379	773.6
700.825	777.3
701.272	781.2
701.718	774.4
702.164	777.2
702.61	775.1
703.057	778.9
703.503	780.6
703.949	774.6
704.395	772.7
704.841	775.4
705.287	772.2
705.734	778.5
706.18	776.3
706.626	775.5
707.072	777.5
707.518	773.3
707.964	774.5
708.409	785.4
708.855	771
709.301	777.2
709.747	776.8
710.193	771.1
710.639	782.2
711.084	774.4
711.53	777.2
711.976	777.8
712.421	776.3
712.867	778.4
713.313	779
713.758	779.8
714.204	781.5
714.649	774
715.095	770.9
715.54	783.9
715.986	772.7
716.431	772.1
716.877	778.9
717.322	775.2
717.767	779
718.213	779.3
718.658	772.1
719.103	780.4
719.548	777.3
719.994	778.4
720.439	780.4
720.884	769.2
721.329	775.2
721.774	778.2
722.219	775
722.664	779.5
723.109	770.6
723.554	774.9
723.999	780.9
724.444	774
724.889	773.8
725.334	780.3
725.779	773.7
726.223	777.2
726.668	775
727.113	777.6
727.558	786.1
728.002	776.1
728.447	780.9
728.892	778.7
729.336	771.7
729.781	786.2
730.225	778
730.67	775.8
731.114	781.9
731.559	775.8
732.003	780.6
732.448	781.1
732.892	777.1
733.337	776.3
733.781	777.9
734.225	775.6
734.67	778.7
735.114	775.8
735.558	776.2
736.002	783.6
736.446	774.1
736.891	774.8
737.335	780.3
737.779	774.3
738.223	781.1
738.667	778.2
739.111	778.2
739.555	783
739.999	773.6
740.443	779.7
740.887	777.5
741.33	776
741.774	775.4
742.218	779.9
742.662	776.9
743.106	786.2
743.549	772.1
743.993	776.2
744.437	780.3
744.88	773.1
745.324	771.5
745.768	774.6
746.211	774.6
746.655	778.3
747.098	779.6
747.542	777.3
747.985	779.2
748.429	773.4
748.872	773.8
749.315	779.7
749.759	777.4
750.202	784.5
750.645	776.4
751.089	778.2
751.532	782.3
751.975	777.9
752.418	779.2
752.861	776.1
753.305	777.7
753.748	776
754.191	777.8
754.634	774.8
755.077	779.6
755.52	771.9
755.963	778.7
756.406	777.6
756.849	776.7
757.291	776.9
757.734	776.2
758.177	773.4
758.62	782.4
759.063	774.4
759.505	776
759.948	777
760.391	772.5
760.833	783.5
761.276	770.9
761.719	777
762.161	781.4
762.604	775.2
763.046	773.9
763.489	777.3
763.931	772.3
764.374	777.7
764.816	776.9
765.258	774.1
765.701	781.8
766.143	777.7
766.585	773.9
767.028	773.8
767.47	772.1
767.912	783
768.354	775.7
768.796	775.6
769.238	781.2
769.681	776.5
770.123	780.2
770.565	782.7
771.007	771.6
771.449	778.1
771.891	774.5
772.333	771.8
772.774	780.4
773.216	777.3
773.658	776.8
774.1	776.1
774.542	771.3
774.984	776.5
775.425	776.7
775.867	773.4
776.309	782.2
776.75	778
777.192	776.4
777.634	776
778.075	775.7
778.517	777.5
778.958	775.9
779.4	776.6
779.841	781.1
780.283	777.2
780.724	769.6
781.165	782.7
781.607	778.6
782.048	770.6
782.489	779.4
782.931	774.6
783.372	780
783.813	773.2
784.254	772.7
784.695	781.7
785.136	780.7
785.578	775.4
786.019	778.9
786.46	775.9
786.901	774.4
787.342	780.3
787.783	776.9
788.224	782.6
788.664	780.4
789.105	778.7
789.546	778.7
789.987	777
790.428	774.7
790.869	777.4
791.309	773
791.75	777.7
792.191	780
792.631	777.5
793.072	783.7
793.513	778.3
793.953	773.7
794.394	778.2
794.834	776.3
795.275	782.2
795.715	775
796.156	774.2
796.596	780.3
797.036	774.3
797.477	771.9
797.917	781.5
798.357	774.9
798.798	779.3
799.238	777.9
799.678	777.9
800.118	785
800.558	775.7
800.998	776.7
801.439	779.9
801.879	772.8
802.319	774.4
802.759	776
803.199	777.4
803.639	776.2
804.079	777.5
804.518	776.9
804.958	780.2
805.398	775.1
805.838	778
806.278	777.9
806.718	776.2
807.157	778.9
807.597	776.3
808.037	775.6
808.476	781.1
808.916	777
809.356	776.8
809.795	780.4
810.235	777.5
810.674	780
811.114	774.2
811.553	774.3
811.993	781.9
812.432	774.5
812.871	772.9
813.311	781.6
813.75	772.4
814.189	776.2
814.629	774
815.068	774.5
815.507	781.6
815.946	776.9
816.385	777.1
816.824	780.1
817.263	777.9
817.703	779.5
818.142	777.5
818.581	778.2
819.02	782.1
819.459	774
819.897	773.3
820.336	780.4
820.775	776.8
821.214	787
821.653	778.7
822.092	775.6
822.53	777.2
822.969	774.8
823.408	778
823.847	785.8
824.285	775.2
824.724	778.6
825.162	777.1
825.601	775.7
826.04	781.3
826.478	778.8
826.916	776.1
827.355	782.8
827.793	777.9
828.232	776
828.67	780.4
829.108	773
829.547	772.6
829.985	779.6
830.423	777.9
830.862	785.6
831.3	778.8
831.738	775.4
832.176	781.8
832.614	776.3
833.052	775.8
833.49	786
833.928	774
834.366	779.5
834.804	772.6
835.242	777.5
835.68	779.2
836.118	776
836.556	771.7
836.994	776.1
837.432	772
837.869	785.1
838.307	775.1
838.745	776.7
839.183	781
839.62	775.9
840.058	778.6
840.496	778.9
840.933	772.9
841.371	777.4
841.808	775.2
842.246	780.2
842.683	779.6
843.121	773.7
843.558	778.1
843.995	780.2
844.433	778
844.87	777.1
845.307	782.1
845.745	775.5
846.182	777.3
846.619	777.3
847.056	778.3
847.494	782
847.931	776.8
848.368	776.8
848.805	773.3
849.242	775.2
849.679	780
850.116	776.8
850.553	774.7
850.99	776.6
851.427	777.9
851.864	777.2
852.301	776
852.737	777.2
853.174	781.9
853.611	778.3
854.048	778.5
854.484	782.6
854.921	774.4
855.358	783.7
855.794	778.8
856.231	770.4
856.668	781.2
857.104	776.6
857.541	774
857.977	782.5
858.414	777.3
858.85	779.4
859.286	780.1
859.723	779.1
860.159	777.5
860.596	776.3
861.032	778.8
861.468	780.5
861.904	782.4
862.341	778.9
862.777	780.3
863.213	773.9
863.649	776.1
864.085	777
864.521	779.5
864.957	778.5
865.393	775.1
865.829	774.9
866.265	780.7
866.701	778
867.137	780.8
867.573	775.9
868.009	773.9
868.445	777.7
868.88	773.2
869.316	781.3
869.752	783
870.188	774.8
870.623	775.8
871.059	783.2
871.495	777.7
871.93	778.3
872.366	777.9
872.801	776.8
873.237	777.1
873.672	773.6
874.108	771.2
874.543	779.9
874.979	777
875.414	779.9
875.849	780.2
876.285	776.9
876.72	778.1
877.155	774.5
877.59	776.3
878.026	779.9
878.461	777.3
878.896	777.1
879.331	772.9
879.766	776.2
880.201	781.6
880.636	780.3
881.071	773
881.506	779.8
881.941	778.1
882.376	777.1
882.811	777.6
883.246	776.2
883.681	775.5
884.116	777.1
884.55	773.3
884.985	779.4
885.42	772.2
885.855	777.6
886.289	780.3
886.724	772.7
887.159	777.8
887.593	776
888.028	780.4
888.462	782.6
888.897	775.8
889.331	779.2
889.766	780.4
890.2	776.4
890.634	775.8
891.069	775.1
891.503	778.3
891.937	782.7
892.372	772.5
892.806	775.5
893.24	777.4
893.674	777.7
894.109	776.3
894.543	777.6
894.977	773
895.411	776.8
895.845	775.2
896.279	779.8
896.713	778.7
897.147	777.8
897.581	777.2
898.015	778.9
898.449	775.2
898.883	781.3
899.316	773.5
899.75	779.1
900.184	786.2
900.618	775.8
901.051	778.4
901.485	778.1
901.919	775.8
902.352	780.9
902.786	773.1
903.22	775.8
903.653	783.4
904.087	778.2
904.52	779.5
904.954	781.1
905.387	775.9
905.82	776.1
906.254	772.9
906.687	773.6
907.121	783.1
907.554	774.4
907.987	774.1
908.42	779.3
908.854	770.5
909.287	776.7
909.72	775.3
910.153	776.5
910.586	780.8
911.019	773.8
911.452	775.6
911.885	781.4
912.318	772.4
912.751	781.2
913.184	779.1
913.617	772.9
914.05	780.2
914.483	778
914.916	772
915.348	782.8
915.781	770.8
916.214	779.5
916.647	778.9
917.079	770.8
917.512	777.3
917.944	775.2
918.377	775.1
918.81	780.1
919.242	773.1
919.675	774.3
920.107	774.1
920.54	775.8
920.972	778.1
921.404	779.3
921.837	778.1
922.269	780.1
922.701	770.8
923.134	779.8
923.566	779.8
923.998	779.3
924.43	779.9
924.863	779.6
925.295	778.2
925.727	779.9
926.159	773.3
926.591	780.4
927.023	776.5
927.455	774.8
927.887	778.8
928.319	775.1
928.751	779.3
929.183	779.2
929.615	776.2
930.046	775.1
930.478	780.5
930.91	773.3
931.342	777
931.773	783.1
932.205	771.9
932.637	778.2
933.068	777.1
933.5	770.3
933.932	778.7
934.363	774.2
934.795	775.2
935.226	782.7
935.658	778.6
936.089	776.5
936.521	776
936.952	776.6
937.383	779.9
937.815	777.4
938.246	777.4
938.677	780.9
939.108	778.6
939.54	776.1
939.971	776.3
940.402	774.7
940.833	784.4
941.264	777
941.695	776
942.126	780
942.557	774.2
942.988	781
943.419	779.7
943.85	777.1
944.281	778.8
944.712	771.5
945.143	778.7
945.574	782.8
946.004	776.6
946.435	779.6
946.866	780.1
947.297	776.1
947.727	775.7
948.158	776.1
948.588	776.5
949.019	783.4
949.45	772.2
949.88	774.4
950.311	774.4
950.741	773.7
951.172	775.5
951.602	776.7
952.032	776.2
952.463	783.7
952.893	776.8
953.323	774.7
953.754	784
954.184	775.7
954.614	776.1
955.044	774.9
955.475	776.3
955.905	779.2
956.335	778.8
956.765	773.2
957.195	779.9
957.625	773.6
958.055	774.3
958.485	777.1
958.915	776
959.345	781.4
959.775	774.9
960.204	773.9
960.634	777.9
961.064	775.1
961.494	777.6
961.924	779
962.353	771.7
962.783	776.3
963.213	775.2
963.642	775.9
964.072	784.2
964.501	777
964.931	776.7
965.361	774.2
965.79	774.8
966.219	775.9
966.649	773.7
967.078	778.5
967.508	779.3
967.937	778
968.366	773.2
968.796	777.4
969.225	774.7
969.654	779.3
970.083	775.1
970.513	775.1
970.942	783.8
971.371	770.3
971.8	774.9
972.229	781.2
972.658	776.1
973.087	780.7
973.516	777.8
973.945	774.3
974.374	781
974.803	781.3
975.232	775.7
975.66	780.1
976.089	773.5
976.518	773.8
976.947	782
977.375	777.1
977.804	780.1
978.233	777.8
978.661	771.4
979.09	779
979.519	771.2
979.947	777.9
980.376	776.7
980.804	776.3
981.233	776.5
981.661	773.1
982.09	773.8
982.518	785.5
982.946	771
983.375	770.1
983.803	780.2
984.231	775
984.659	777.8
985.088	775.6
985.516	775.1
985.944	781.5
986.372	775.3
986.8	770.8
987.228	779.1
987.656	778.1
988.084	777.8
988.512	775.3
988.94	775.9
989.368	784.1
989.796	772.1
990.224	775.3
990.652	779.8
991.08	773.2
991.507	773.7
991.935	778.1
992.363	771.1
992.791	775.5
993.218	777.1
993.646	778.7
994.074	782.6
994.501	772.3
994.929	769.4
995.356	776.1
995.784	778.4
996.211	781.4
996.639	775.2
997.066	779.1
997.493	776.5
997.921	772.5
998.348	774.3
998.775	779.1
999.203	774.3
999.63	775.7
1000.057	774.5
1000.484	769.9
1000.912	777.5
1001.339	776.4
1001.766	771.7
1002.193	783.5
1002.62	770.5
1003.047	776.9
1003.474	778.6
1003.901	773.9
1004.328	777.5
1004.755	777.2
1005.182	777.7
1005.608	780.7
1006.035	770.7
1006.462	776.9
1006.889	781.8
1007.316	775.3
1007.742	783.3
1008.169	773.6
1008.596	772
1009.022	779.7
1009.449	775.5
1009.875	772.4
1010.302	778.6
1010.728	776.7
1011.155	784.8
1011.581	778.2
1012.008	776.7
1012.434	781.8
1012.861	774.7
1013.287	777.2
1013.713	782.4
1014.139	775.7
1014.566	780.9
1014.992	775
1015.418	774.7
1015.844	783.8
1016.27	777.3
1016.697	776.4
1017.123	777.4
1017.549	776.4
1017.975	776.5
1018.401	773.5
1018.827	773.9
1019.253	780
1019.679	769.7
1020.104	773.7
1020.53	781.3
1020.956	771.7
1021.382	774.6
1021.808	778.3
1022.233	775.7
1022.659	776.5
1023.085	779.6
1023.51	771.9
1023.936	778.2
1024.362	774.1
1024.787	776.9
1025.213	774.7
1025.638	771.2
1026.064	774
1026.489	772.4
1026.915	775
1027.34	777.8
1027.765	773.7
1028.191	774.7
1028.616	781.8
1029.041	778.1
1029.467	776.6
1029.892	778
1030.317	776.6
1030.742	781
1031.167	775.9
1031.592	777.2
1032.018	780.3
1032.443	774.8
1032.868	772.3
1033.293	779.4
1033.718	771.9
1034.143	778.2
1034.567	773.7
1034.992	773.3
1035.417	784.6
1035.842	774.2
1036.267	772.6
1036.692	781.9
1037.116	776.5
1037.541	778.3
1037.966	777.2
1038.39	772.9
1038.815	780.6
1039.24	772
1039.664	777.2
1040.089	774.3
1040.513	777.3
1040.938	773.2
1041.362	773.1
1041.787	774.7
1042.211	781.1
1042.635	771.4
1043.06	772.3
1043.484	772.3
1043.908	772.4
1044.333	778.1
1044.757	780.9
1045.181	770.4
1045.605	780.5
1046.029	769.2
1046.454	774.9
1046.878	774
1047.302	774.7
1047.726	780.4
1048.15	778
1048.574	776.3
1048.998	779.2
1049.422	776
1049.845	774.1
1050.269	774.3
1050.693	776.3
1051.117	773.6
1051.541	782.4
1051.964	774.3
1052.388	782.3
1052.812	777.5
1053.235	772.8
1053.659	774.5
1054.083	771.6
1054.506	771.3
1054.93	776
1055.353	776.7
1055.777	778
1056.2	773
1056.624	776.1
1057.047	775.8
1057.471	773.7
1057.894	775.5
1058.317	778.9
1058.74	777.6
1059.164	780.1
1059.587	779.6
1060.01	773.4
1060.433	784.3
1060.856	772.2
1061.28	775.2
1061.703	786.3
1062.126	780.1
1062.549	779.6
1062.972	777.2
1063.395	773.9
1063.818	778.9
1064.241	771.5
1064.663	771.2
1065.086	781.6
1065.509	771.8
1065.932	778
1066.355	780.1
1066.777	771.7
1067.2	781.4
1067.623	772.9
1068.046	770.8
1068.468	778.7
1068.891	773.8
1069.313	773.5
1069.736	781.9
1070.158	771.9
1070.581	773.8
1071.003	772.1
1071.426	774.8
1071.848	780.5
1072.271	772.3
1072.693	776.8
1073.115	778.1
1073.538	772.2
1073.96	772.8
1074.382	775.3
1074.804	775.8
1075.226	776.5
1075.649	771.4
1076.071	772.2
1076.493	777.7
1076.915	775.1
1077.337	774.5
1077.759	773
1078.181	772.3
1078.603	775.4
1079.025	770.9
1079.447	777.4
1079.868	780.4
1080.29	771.1
1080.712	776.5
1081.134	776.6
1081.556	776.5
1081.977	776.9
1082.399	776.3
1082.821	778.1
1083.242	781.2
1083.664	774.1
1084.085	776.2
1084.507	778.8
1084.928	774.8
1085.35	780.1
1085.771	769.2
1086.193	772.9
1086.614	781.1
1087.036	771.2
1087.457	777.8
1087.878	776.1
1088.3	777.6
1088.721	775.4
1089.142	771.1
1089.563	775.3
1089.984	778.1
1090.406	775.1
1090.827	775.5
1091.248	777
1091.669	772.7
1092.09	776.6
1092.511	774.3
1092.932	773
1093.353	773.4
1093.774	772.5
1094.195	775.9
1094.615	776.3
1095.036	773.7
1095.457	779.9
1095.878	777.3
1096.299	776.6
1096.719	778.2
1097.14	777.4
1097.561	775
1097.981	780.9
1098.402	772
1098.822	776.4
1099.243	782.3
1099.663	776.5
1100.084	779.3
1100.504	770.6
1100.925	773.6
1101.345	778.5
1101.766	779.5
1102.186	775.9
1102.606	778.5
1103.026	777.7
1103.447	780.4
1103.867	772.1
1104.287	771.1
1104.707	777.7
