节点UV_HRD08281_00012.txt的数据
Date: Wed Jan 15 10:35:09 CST 2020
User: lab329
Spectrometer: HR+D0828
触发模式: 0
积分时间 (秒): 4.000000E-3
Scans to average: 10
启用暗噪声校正: false
启用非线性校正: false
滑动平均宽度: 0
X轴模式: Wavelengths
Number of Pixels in Spectrum: 2048
>>>>>Begin Spectral Data<<<<<
186.281	783.8
186.758	783.8
187.234	783.8
187.71	779.6
188.187	780.5
188.663	783.1
189.139	781
189.615	778.2
190.091	780.3
190.567	782.4
191.043	781.2
191.519	785.1
191.995	780.8
192.471	783
192.947	780.2
193.423	786.4
193.899	776.4
194.375	781.2
194.851	780.7
195.327	777.5
195.803	778.4
196.278	781.8
196.754	781.8
197.23	782.1
197.706	779.9
198.181	781.3
198.657	783.9
199.133	778.8
199.608	777.1
200.084	787.2
200.559	779.8
201.035	781.6
201.51	781.6
201.986	781.1
202.461	777.7
202.937	780.6
203.412	779.3
203.887	781.7
204.363	779.9
204.838	780.6
205.313	784.6
205.789	782.2
206.264	781.2
206.739	780.9
207.214	785.8
207.689	777.6
208.165	783.1
208.64	780.9
209.115	778.1
209.59	773.3
210.065	780
210.54	776
211.015	783.4
211.49	779.9
211.965	777.5
212.44	778.4
212.914	782.6
213.389	779.6
213.864	777.2
214.339	776.4
214.814	776.6
215.288	783.6
215.763	778.6
216.238	775.7
216.712	779.1
217.187	776.1
217.662	784.8
218.136	777.6
218.611	779.7
219.085	774.8
219.56	777.4
220.034	780.3
220.509	782.9
220.983	782.9
221.458	777.8
221.932	777.6
222.406	778
222.881	776.4
223.355	774.6
223.829	784.9
224.303	776.7
224.778	777.9
225.252	778.7
225.726	778.2
226.2	780.2
226.674	776.2
227.148	775
227.622	778.7
228.096	778.8
228.57	775.2
229.044	777.5
229.518	783.7
229.992	780.6
230.466	786.1
230.94	780.3
231.414	784.8
231.888	779.5
232.361	777.7
232.835	783.2
233.309	782.2
233.783	779
234.256	780.9
234.73	779.6
235.204	782.5
235.677	784.8
236.151	781
236.624	780.3
237.098	778.2
237.571	779.2
238.045	777.7
238.518	779.9
238.992	776.7
239.465	781
239.939	778.3
240.412	781.8
240.885	780.2
241.359	784.2
241.832	774.7
242.305	779.6
242.778	783.3
243.251	779.4
243.725	776.5
244.198	777.8
244.671	775.6
245.144	777.9
245.617	778.4
246.09	776.3
246.563	777
247.036	777.6
247.509	775.5
247.982	778.6
248.455	779.7
248.928	779.3
249.4	778.3
249.873	782.8
250.346	781.3
250.819	780.7
251.292	779
251.764	777.6
252.237	778.8
252.71	778.8
253.182	778.2
253.655	781.2
254.127	782.7
254.6	785.3
255.073	783
255.545	780.9
256.018	779.2
256.49	778.9
256.962	776
257.435	782.3
257.907	778.6
258.379	786.8
258.852	779.6
259.324	780
259.796	781.6
260.269	780.2
260.741	780.9
261.213	785.4
261.685	779.8
262.157	781.6
262.629	779.5
263.101	774.6
263.574	779.5
264.046	776.4
264.518	784
264.99	783.9
265.461	778.1
265.933	778.1
266.405	781.5
266.877	780.9
267.349	782.6
267.821	781.8
268.293	782
268.764	778.3
269.236	780.3
269.708	776.1
270.18	782.2
270.651	778.2
271.123	781.9
271.594	782.7
272.066	780.3
272.538	779.9
273.009	777.7
273.481	779.5
273.952	779.9
274.423	780.3
274.895	777.7
275.366	779.9
275.838	782.6
276.309	782.1
276.78	776.6
277.252	783.1
277.723	775.3
278.194	779
278.665	781.9
279.136	779.6
279.608	782.3
280.079	780.4
280.55	780.2
281.021	778.1
281.492	781.7
281.963	782.1
282.434	780.5
282.905	781.9
283.376	781.8
283.847	781.3
284.318	780
284.789	780.4
285.259	783.3
285.73	782.8
286.201	779.6
286.672	782.3
287.143	780.9
287.613	780.6
288.084	777.2
288.555	783.1
289.025	778.1
289.496	780.6
289.966	779.4
290.437	783.4
290.907	778.1
291.378	781.1
291.848	779.1
292.319	780.2
292.789	782.5
293.26	779.3
293.73	779.9
294.2	778.7
294.671	779.5
295.141	777.1
295.611	781.4
296.081	779.3
296.552	782.8
297.022	778.3
297.492	778.6
297.962	777.5
298.432	779.8
298.902	778.4
299.372	780.7
299.842	778.6
300.312	782.7
300.782	779.6
301.252	780.1
301.722	783.7
302.192	777.8
302.662	786.6
303.132	781.5
303.602	780.8
304.071	785.9
304.541	781
305.011	775.5
305.481	776.2
305.95	778.3
306.42	782.3
306.889	776.6
307.359	784.1
307.829	780.1
308.298	784.2
308.768	775.8
309.237	783.2
309.707	776.7
310.176	780.2
310.645	781.6
311.115	779.2
311.584	783.6
312.054	784.3
312.523	781.4
312.992	781.1
313.461	780.6
313.931	782
314.4	781.8
314.869	779
315.338	776.6
315.807	782.7
316.276	780.9
316.745	785.2
317.214	778.1
317.683	783
318.152	780.2
318.621	782.5
319.09	784.1
319.559	785.3
320.028	783.9
320.497	783.1
320.966	779.6
321.435	782.1
321.903	780
322.372	779.1
322.841	778.6
323.31	783.4
323.778	780
324.247	784.5
324.715	781.9
325.184	783.5
325.653	778
326.121	777
326.59	777.2
327.058	784.2
327.527	783.4
327.995	783.6
328.463	781.9
328.932	780.4
329.4	777.8
329.868	779.6
330.337	784.2
330.805	783.7
331.273	780.2
331.741	778.7
332.21	783.8
332.678	784.4
333.146	777.9
333.614	783.7
334.082	785.6
334.55	785.8
335.018	779.8
335.486	777.6
335.954	783.8
336.422	781.6
336.89	779.2
337.358	781.6
337.826	785.7
338.294	783
338.762	778.6
339.229	783.4
339.697	781
340.165	778.1
340.633	779.3
341.1	781.9
341.568	781.8
342.035	786.1
342.503	781.4
342.971	781.5
343.438	786.8
343.906	780.9
344.373	783.1
344.841	783.3
345.308	788.3
345.776	778.4
346.243	775.7
346.71	783.3
347.178	786.1
347.645	782
348.112	784.4
348.58	779
349.047	784.5
349.514	781.6
349.981	784.4
350.448	780.8
350.915	786.3
351.383	780.7
351.85	780.7
352.317	778.7
352.784	778.2
353.251	778.7
353.718	782.2
354.185	784.4
354.651	781.8
355.118	776.7
355.585	779.5
356.052	783.4
356.519	780.9
356.986	780.5
357.452	780.3
357.919	782.9
358.386	777.4
358.853	784.3
359.319	784.5
359.786	781.2
360.252	779.7
360.719	782
361.185	787.1
361.652	782.1
362.118	783.7
362.585	781
363.051	778.3
363.518	781.7
363.984	782.5
364.451	785.6
364.917	783.2
365.383	782.6
365.849	781.3
366.316	781.9
366.782	783.8
367.248	781
367.714	781.4
368.18	785.1
368.647	781.9
369.113	781.4
369.579	779.2
370.045	784.8
370.511	781.4
370.977	781.1
371.443	783.8
371.909	783.8
372.374	783.7
372.84	784.8
373.306	780.9
373.772	784.1
374.238	780.8
374.704	786.9
375.169	782.6
375.635	786.2
376.101	784.8
376.566	781.4
377.032	775.4
377.498	784.7
377.963	780.7
378.429	788.5
378.894	782.5
379.36	783.5
379.825	783.5
380.291	786.2
380.756	782.1
381.222	785.3
381.687	789.4
382.152	786.8
382.618	784.9
383.083	789.9
383.548	788.4
384.013	790.2
384.479	790.4
384.944	790.9
385.409	790.2
385.874	793.7
386.339	792.1
386.804	799.1
387.269	796.1
387.734	794.8
388.199	802.4
388.664	804.5
389.129	803.4
389.594	801.7
390.059	797.4
390.524	803
390.989	805.9
391.453	814
391.918	814.3
392.383	822.9
392.848	824.5
393.312	835.8
393.777	852.6
394.242	868.5
394.706	895.2
395.171	934.2
395.635	991.4
396.1	1072.6
396.565	1201.7
397.029	1365.8
397.493	1595.1
397.958	1911.6
398.422	2349.7
398.887	2887.2
399.351	3578.2
399.815	4426.3
400.28	5372.9
400.744	6367.9
401.208	7477
401.672	8505.7
402.137	9382.8
402.601	10298.8
403.065	11261.5
403.529	11904.8
403.993	12263.9
404.457	12580
404.921	12553.9
405.385	12212.8
405.849	11781.8
406.313	11031.1
406.777	10147.3
407.241	9137.3
407.705	8263.6
408.169	7340.8
408.632	6397.4
409.096	5534.7
409.56	4713.3
410.024	3967.9
410.487	3266.4
410.951	2669.3
411.415	2281.8
411.878	1986.7
412.342	1732
412.806	1544.3
413.269	1379.5
413.733	1258.4
414.196	1155.2
414.66	1082.3
415.123	1024.8
415.587	973.1
416.05	937.1
416.513	909.1
416.977	887.8
417.44	866.3
417.903	861.8
418.366	855
418.83	848
419.293	838.6
419.756	835.7
420.219	833.4
420.682	831.2
421.145	827.6
421.608	822.8
422.072	822.8
422.535	818.9
422.998	815.2
423.46	814.8
423.923	808.8
424.386	812.4
424.849	806.3
425.312	808.1
425.775	797.1
426.238	801.7
426.7	801.6
427.163	798.2
427.626	797.2
428.089	796
428.551	796.1
429.014	794.1
429.477	790.7
429.939	792.8
430.402	787.5
430.864	793.1
431.327	789.3
431.789	787.6
432.252	787.1
432.714	782.2
433.176	787.3
433.639	782.7
434.101	783.5
434.563	785.8
435.026	785.8
435.488	788.7
435.95	788.5
436.412	786
436.875	787.9
437.337	786.3
437.799	788.7
438.261	779.8
438.723	780.1
439.185	790.2
439.647	784.2
440.109	778.9
440.571	782.5
441.033	782.9
441.495	785.9
441.957	784
442.419	781.9
442.881	789.6
443.342	779.2
443.804	784.3
444.266	787.8
444.728	782.3
445.189	783.4
445.651	783.2
446.113	779.9
446.574	784.8
447.036	779.5
447.497	779.6
447.959	784.6
448.421	781.5
448.882	784.1
449.343	782.6
449.805	783.6
450.266	779.5
450.728	784.4
451.189	785.3
451.65	783
452.112	784
452.573	779.4
453.034	787.3
453.495	784.9
453.957	783.2
454.418	782.4
454.879	783.3
455.34	780.3
455.801	784.2
456.262	777.3
456.723	781.8
457.184	788.2
457.645	780.8
458.106	781.7
458.567	781.7
459.028	781.7
459.489	785
459.95	779.3
460.41	784.4
460.871	777.6
461.332	784.1
461.793	779.6
462.253	782.8
462.714	777.1
463.175	776.9
463.635	778.9
464.096	786.3
464.556	786.9
465.017	784.6
465.478	781
465.938	786.9
466.398	782.6
466.859	780
467.319	779.4
467.78	782.8
468.24	785
468.7	787.7
469.161	785.3
469.621	785.8
470.081	785.2
470.541	778.9
471.002	783.3
471.462	784.4
471.922	780.7
472.382	780.2
472.842	783.8
473.302	780.8
473.762	781.1
474.222	782.1
474.682	782.1
475.142	779.7
475.602	781.2
476.062	777.8
476.522	785.3
476.982	785.5
477.442	784.6
477.901	783.2
478.361	783.3
478.821	779.4
479.281	780.5
479.74	780.5
480.2	784.8
480.659	779.7
481.119	782.4
481.579	781.3
482.038	783.1
482.498	778.1
482.957	779.3
483.417	779.2
483.876	777.9
484.336	785
484.795	777.8
485.254	773
485.714	778
486.173	781.3
486.632	778.3
487.091	781.8
487.551	783.3
488.01	779.9
488.469	777.7
488.928	782.3
489.387	781.2
489.846	775.9
490.305	776
490.764	779.5
491.223	776.9
491.682	777.5
492.141	778
492.6	778.6
493.059	776.6
493.518	782.7
493.977	775.1
494.436	780.1
494.895	778.3
495.353	782.5
495.812	778.7
496.271	779.4
496.729	779
497.188	778.2
497.647	778.3
498.105	779.5
498.564	776.5
499.022	780.1
499.481	783.7
499.939	778
500.398	780.6
500.856	776.2
501.315	775.9
501.773	780.4
502.232	783
502.69	782.8
503.148	780.3
503.606	782.8
504.065	779.3
504.523	782.5
504.981	777.9
505.439	781.2
505.897	779.7
506.356	779.3
506.814	780.1
507.272	778.9
507.73	782.6
508.188	777.2
508.646	779.5
509.104	776.4
509.562	779.1
510.02	778.9
510.477	778.3
510.935	781.8
511.393	779.2
511.851	774
512.309	779.5
512.766	781
513.224	779.4
513.682	775.5
514.139	783
514.597	771.7
515.055	775.9
515.512	774
515.97	780.1
516.427	774
516.885	778.9
517.342	777.6
517.8	777
518.257	778.6
518.714	777.3
519.172	779.6
519.629	779.8
520.086	777.5
520.544	780.5
521.001	777.8
521.458	776.4
521.915	776.2
522.373	775.4
522.83	774
523.287	774.5
523.744	775.7
524.201	779.5
524.658	779.6
525.115	777.9
525.572	778
526.029	777.2
526.486	783.2
526.943	780
527.4	776.1
527.857	769.1
528.313	778.7
528.77	779.8
529.227	781.4
529.684	773.8
530.14	778.5
530.597	775.6
531.054	779.6
531.51	775.8
531.967	776.6
532.423	779.4
532.88	782.1
533.337	779.3
533.793	778.8
534.25	777.2
534.706	780.9
535.162	776.3
535.619	776.5
536.075	780.1
536.531	776.6
536.988	778.9
537.444	779.7
537.9	779.7
538.356	778.5
538.813	777.9
539.269	777.4
539.725	780.5
540.181	776.1
540.637	777.6
541.093	772.2
541.549	774
542.005	778.1
542.461	781.3
542.917	776
543.373	775.8
543.829	768.6
544.285	774.6
544.741	781.7
545.197	776
545.652	779.2
546.108	774.4
546.564	773.7
547.02	779.5
547.475	776.2
547.931	781.7
548.387	775.4
548.842	778.5
549.298	776.5
549.753	778.3
550.209	778.8
550.664	774.5
551.12	772.8
551.575	779.7
552.031	775.7
552.486	781.2
552.941	774.2
553.397	780.3
553.852	776.1
554.307	774.5
554.762	773.5
555.218	775.1
555.673	773.2
556.128	776
556.583	777.2
557.038	780.6
557.493	776.2
557.948	775.2
558.403	780.8
558.858	774.7
559.313	775.4
559.768	780.4
560.223	779.6
560.678	777.3
561.133	773.2
561.588	776.4
562.043	776.3
562.497	778.4
562.952	776.5
563.407	780.1
563.862	771.4
564.316	772.9
564.771	773.7
565.226	777.3
565.68	779.6
566.135	779.3
566.589	777.1
567.044	773.1
567.498	779.7
567.953	774
568.407	776.5
568.862	780.4
569.316	778.6
569.77	776.6
570.225	781.9
570.679	777.4
571.133	776.8
571.587	773.7
572.042	774.1
572.496	774
572.95	773
573.404	774.1
573.858	779.1
574.312	776.1
574.766	775
575.22	777.5
575.674	780.3
576.128	782.6
576.582	778.3
577.036	774.8
577.49	772.9
577.944	785.9
578.398	778.4
578.852	781.1
579.305	774.5
579.759	776
580.213	776.3
580.666	778.1
581.12	773.9
581.574	775.9
582.027	773.5
582.481	779.4
582.935	776.9
583.388	779.3
583.842	778
584.295	773.4
584.748	775.6
585.202	780
585.655	780.1
586.109	774.1
586.562	774.4
587.015	778
587.469	782
587.922	776.5
588.375	774.3
588.828	779.7
589.281	773.6
589.735	775.4
590.188	779.6
590.641	777
591.094	778.7
591.547	777.7
592	782.4
592.453	779.9
592.906	779.5
593.359	783
593.812	773.2
594.265	776.7
594.717	780.2
595.17	772.7
595.623	774.4
596.076	780.7
596.529	777
596.981	775
597.434	776.1
597.887	776
598.339	780.5
598.792	772.5
599.245	777.9
599.697	780.9
600.15	776.7
600.602	777.4
601.055	783.4
601.507	781.2
601.959	774.6
602.412	772.9
602.864	777.9
603.316	779.6
603.769	782.6
604.221	778
604.673	778.4
605.126	775.9
605.578	777.1
606.03	774.1
606.482	777.6
606.934	773.3
607.386	774
607.838	777.8
608.29	775.5
608.742	775.7
609.194	776.5
609.646	777.5
610.098	774.1
610.55	776.8
611.002	773.3
611.454	782.9
611.906	779.2
612.357	775.9
612.809	775.1
613.261	779.4
613.713	772.3
614.164	773
614.616	773.9
615.068	770.7
615.519	779.4
615.971	776.3
616.422	777.3
616.874	775.7
617.325	774.4
617.777	776.6
618.228	781.8
618.68	777.1
619.131	779.6
619.582	775.3
620.034	773.3
620.485	778.3
620.936	780.7
621.387	773.3
621.839	781.3
622.29	778.6
622.741	775.3
623.192	767.9
623.643	778.5
624.094	775.1
624.545	774
624.996	775.7
625.447	778.6
625.898	775.8
626.349	771.1
626.8	780.1
627.251	777.6
627.702	775
628.153	775.3
628.604	776.1
629.054	778
629.505	771.1
629.956	774.9
630.406	775.1
630.857	778
631.308	779.4
631.758	776.4
632.209	775.8
632.66	775.8
633.11	779.2
633.561	775.8
634.011	782.3
634.461	778.2
634.912	776.7
635.362	774.1
635.813	775
636.263	778.1
636.713	779
637.164	776.8
637.614	775
638.064	776.1
638.514	778.6
638.964	776.2
639.415	777
639.865	778.3
640.315	780
640.765	781.2
641.215	773.5
641.665	774.2
642.115	776.9
642.565	773.6
643.015	779
643.465	775.5
643.915	774.1
644.364	775.1
644.814	778.1
645.264	773.7
645.714	778.2
646.163	777.6
646.613	778.7
647.063	775.5
647.513	779.9
647.962	772.7
648.412	774.9
648.861	772.9
649.311	772.6
649.76	781.2
650.21	771.9
650.659	781.1
651.109	779.1
651.558	779.7
652.008	774.4
652.457	776.3
652.906	775.8
653.356	776.7
653.805	772.3
654.254	778.6
654.703	778.2
655.152	777.4
655.602	772.7
656.051	774.3
656.5	772.8
656.949	778.7
657.398	782.1
657.847	776.7
658.296	772.9
658.745	781.4
659.194	776.2
659.643	774.5
660.092	774
660.541	776.5
660.989	778.3
661.438	773.2
661.887	777.7
662.336	777.1
662.784	774.4
663.233	778.8
663.682	773.7
664.13	778.9
664.579	772.2
665.028	774.5
665.476	775.6
665.925	775.6
666.373	776.6
666.822	775.4
667.27	775
667.719	778.8
668.167	778.4
668.615	775.9
669.064	779.2
669.512	773.8
669.96	774.2
670.408	779
670.857	776.7
671.305	776
671.753	772.7
672.201	780
672.649	777.8
673.097	778.2
673.545	771.8
673.993	778.4
674.441	775.8
674.889	772.3
675.337	780.8
675.785	778.1
676.233	777.2
676.681	774
677.129	776
677.577	774.9
678.025	772
678.472	777.7
678.92	777
679.368	772.8
679.815	778.2
680.263	779
680.711	782.4
681.158	775.5
681.606	777.4
682.053	776.9
682.501	777.6
682.948	776.6
683.396	777.8
683.843	777.6
684.291	774.9
684.738	777.4
685.185	776
685.633	776.9
686.08	775.4
686.527	777.3
686.974	773.8
687.422	775.3
687.869	775.6
688.316	774.2
688.763	779.6
689.21	779.4
689.657	776.8
690.104	774.5
690.551	778.1
690.998	776.6
691.445	780.5
691.892	778.7
692.339	775.4
692.786	776
693.233	774.5
693.68	777.7
694.127	775.7
694.573	772.8
695.02	774.2
695.467	776
695.913	773.2
696.36	780.6
696.807	776
697.253	776.6
697.7	778
698.146	775.2
698.593	777
699.039	775.8
699.486	776.1
699.932	779.7
700.379	774.7
700.825	775
701.272	776.6
701.718	772
702.164	776.3
702.61	777.4
703.057	774
703.503	778.4
703.949	776.8
704.395	775.1
704.841	777.1
705.287	779.7
705.734	774.8
706.18	777.9
706.626	777.1
707.072	778
707.518	778.9
707.964	776.6
708.409	777.9
708.855	781
709.301	777.8
709.747	778.4
710.193	777.4
710.639	776.8
711.084	780.8
711.53	776.4
711.976	775.8
712.421	777.9
712.867	776.1
713.313	774
713.758	781.6
714.204	778.9
714.649	777.4
715.095	773.9
715.54	776.7
715.986	782.9
716.431	776.9
716.877	776.3
717.322	772.7
717.767	776.9
718.213	777.8
718.658	776.8
719.103	775.8
719.548	778.2
719.994	775.1
720.439	778.5
720.884	776
721.329	777.2
721.774	776.1
722.219	773.1
722.664	769.8
723.109	777
723.554	774.8
723.999	778.6
724.444	777.2
724.889	772.2
725.334	775.9
725.779	773.1
726.223	773.7
726.668	777.6
727.113	775.3
727.558	781.8
728.002	779.5
728.447	777
728.892	778.9
729.336	773.4
729.781	776.7
730.225	782.5
730.67	776.5
731.114	781.2
731.559	776.8
732.003	775.3
732.448	776.7
732.892	774
733.337	780
733.781	777.3
734.225	777
734.67	779.7
735.114	776
735.558	774
736.002	775.7
736.446	777.9
736.891	776.2
737.335	779.2
737.779	783
738.223	780.5
738.667	774.7
739.111	773.2
739.555	777.3
739.999	775.1
740.443	776.8
740.887	776.1
741.33	773.3
741.774	775.2
742.218	781.4
742.662	774.2
743.106	773.4
743.549	782
743.993	777.1
744.437	778.8
744.88	776.1
745.324	778.4
745.768	775.6
746.211	779.5
746.655	774.1
747.098	777.2
747.542	773.5
747.985	779.4
748.429	777.6
748.872	776.8
749.315	777.9
749.759	773.2
750.202	773.5
750.645	773.8
751.089	779.1
751.532	773.9
751.975	773.3
752.418	774.8
752.861	771.6
753.305	775.7
753.748	776.7
754.191	775
754.634	777.6
755.077	777.5
755.52	772.7
755.963	774.3
756.406	781.8
756.849	776.5
757.291	778.5
757.734	776.7
758.177	773.8
758.62	775.9
759.063	775.5
759.505	776.2
759.948	778.5
760.391	778.8
760.833	777.6
761.276	774.9
761.719	778.4
762.161	774.6
762.604	771.3
763.046	772.4
763.489	779.3
763.931	781.9
764.374	777.8
764.816	781.5
765.258	776.3
765.701	777.2
766.143	779.1
766.585	769.6
767.028	773.6
767.47	773
767.912	780.6
768.354	779.8
768.796	778.3
769.238	782.1
769.681	775.7
770.123	777.2
770.565	780.9
771.007	776.7
771.449	774.2
771.891	775.7
772.333	774.7
772.774	777.1
773.216	779.1
773.658	779.3
774.1	777.4
774.542	780.7
774.984	771.9
775.425	777.2
775.867	775.6
776.309	776.9
776.75	776.4
777.192	780.7
777.634	776.6
778.075	776.1
778.517	777.9
778.958	774
779.4	774.6
779.841	779.8
780.283	778.2
780.724	780.7
781.165	773.2
781.607	778.5
782.048	775.1
782.489	777.3
782.931	773.3
783.372	780.1
783.813	781.9
784.254	772.2
784.695	774.2
785.136	777.2
785.578	774.2
786.019	777.8
786.46	776.5
786.901	777.9
787.342	775.7
787.783	780
788.224	776.2
788.664	778.8
789.105	775.1
789.546	773.4
789.987	778.4
790.428	783.1
790.869	776.7
791.309	776.5
791.75	781.1
792.191	779.6
792.631	774.1
793.072	777.3
793.513	777.2
793.953	773.8
794.394	777.1
794.834	779.1
795.275	775.4
795.715	778.5
796.156	778.2
796.596	776.1
797.036	777.2
797.477	782.4
797.917	777.5
798.357	774.7
798.798	776
799.238	774.8
799.678	776.7
800.118	785
800.558	781.2
800.998	776.9
801.439	778.7
801.879	779.2
802.319	776.5
802.759	778
803.199	782.2
803.639	781.9
804.079	779.8
804.518	776.1
804.958	779.2
805.398	776.9
805.838	772.7
806.278	778.3
806.718	775.4
807.157	780.1
807.597	776
808.037	778.3
808.476	777.3
808.916	779.8
809.356	775.1
809.795	778.7
810.235	782.2
810.674	778.1
811.114	778.6
811.553	780.3
811.993	781.5
812.432	778.7
812.871	774.7
813.311	780.4
813.75	775.5
814.189	777.1
814.629	776.8
815.068	777.1
815.507	772.9
815.946	778.4
816.385	782
816.824	776.9
817.263	777.9
817.703	779.3
818.142	780.7
818.581	775
819.02	775.8
819.459	778.4
819.897	777.9
820.336	775.8
820.775	782.4
821.214	772.4
821.653	776.6
822.092	776.4
822.53	781
822.969	779.5
823.408	774
823.847	781.4
824.285	778.5
824.724	779.2
825.162	775.3
825.601	772.7
826.04	773.8
826.478	773.5
826.916	776.5
827.355	775.4
827.793	778
828.232	778.3
828.67	777.6
829.108	775.8
829.547	780.4
829.985	774.3
830.423	777.1
830.862	779.4
831.3	780.4
831.738	774.1
832.176	782.1
832.614	781.7
833.052	776
833.49	778.5
833.928	782.7
834.366	776.5
834.804	779.6
835.242	775.6
835.68	775.8
836.118	776.2
836.556	777.4
836.994	781.4
837.432	774
837.869	779.6
838.307	777.9
838.745	774.8
839.183	783
839.62	775.9
840.058	775.3
840.496	777.4
840.933	777.6
841.371	776.5
841.808	778.7
842.246	774.1
842.683	778.5
843.121	778.4
843.558	770.5
843.995	778.2
844.433	780.5
844.87	781.2
845.307	776.7
845.745	780.6
846.182	776.5
846.619	777.3
847.056	778.2
847.494	776
847.931	780.3
848.368	774.8
848.805	777.5
849.242	778.8
849.679	777.7
850.116	777.8
850.553	777
850.99	776
851.427	778.1
851.864	779.4
852.301	780.9
852.737	781.2
853.174	779.2
853.611	775.6
854.048	776.6
854.484	779
854.921	784.2
855.358	778
855.794	777.8
856.231	779.1
856.668	780.5
857.104	775.4
857.541	777.9
857.977	778.2
858.414	780.1
858.85	777
859.286	772.9
859.723	774.8
860.159	777.3
860.596	773
861.032	775.1
861.468	775.1
861.904	783.1
862.341	774.1
862.777	777.5
863.213	779.5
863.649	776.1
864.085	777
864.521	776.4
864.957	776.2
865.393	779.5
865.829	779.7
866.265	773.1
866.701	776.9
867.137	773.4
867.573	780.3
868.009	769.8
868.445	774.4
868.88	782.8
869.316	777.1
869.752	773.3
870.188	778.8
870.623	777.8
871.059	780.6
871.495	777.9
871.93	781.2
872.366	776.9
872.801	780.1
873.237	776
873.672	781.4
874.108	774.1
874.543	780.8
874.979	775.6
875.414	777.9
875.849	775.6
876.285	777.7
876.72	780.4
877.155	777.8
877.59	777.2
878.026	778.9
878.461	783.4
878.896	778.3
879.331	778.1
879.766	779.7
880.201	777
880.636	772.8
881.071	780.2
881.506	778.8
881.941	777
882.376	776.3
882.811	783.1
883.246	778
883.681	777.8
884.116	775.2
884.55	775.7
884.985	778.4
885.42	781.1
885.855	780
886.289	778.9
886.724	783.9
887.159	778.9
887.593	780.8
888.028	777.1
888.462	781.3
888.897	781.7
889.331	778.4
889.766	774.2
890.2	774.1
890.634	779
891.069	778.9
891.503	776.3
891.937	776.9
892.372	778.5
892.806	775.3
893.24	775.7
893.674	779
894.109	780.7
894.543	775.5
894.977	778.6
895.411	778.2
895.845	781.5
896.279	777.3
896.713	777
897.147	776.5
897.581	780.3
898.015	774.4
898.449	771.9
898.883	778.1
899.316	781
899.75	776.5
900.184	774
900.618	784.7
901.051	779
901.485	775.7
901.919	772.7
902.352	779.4
902.786	777.6
903.22	771.3
903.653	776.4
904.087	779.7
904.52	774.6
904.954	778.2
905.387	779.8
905.82	776.5
906.254	778.6
906.687	775.5
907.121	778.8
907.554	776.4
907.987	777
908.42	780.2
908.854	777.2
909.287	778
909.72	779.4
910.153	780.6
910.586	775.4
911.019	777.9
911.452	776.1
911.885	773.1
912.318	774.7
912.751	780
913.184	780.2
913.617	772
914.05	779
914.483	774.8
914.916	776.2
915.348	779.4
915.781	776.1
916.214	776.8
916.647	782.3
917.079	778.6
917.512	779.3
917.944	783.4
918.377	779.5
918.81	776.6
919.242	778.8
919.675	777.6
920.107	780.3
920.54	777.4
920.972	776.9
921.404	775.9
921.837	778.1
922.269	777.5
922.701	778.5
923.134	776
923.566	777.1
923.998	777.5
924.43	772.7
924.863	777.6
925.295	778.6
925.727	785.1
926.159	779.2
926.591	774.3
927.023	777.2
927.455	779.8
927.887	782.5
928.319	778.6
928.751	778.3
929.183	780.4
929.615	782
930.046	775.9
930.478	781
930.91	781
931.342	779.9
931.773	773.5
932.205	773.3
932.637	776.8
933.068	781.6
933.5	776.2
933.932	774.1
934.363	779.6
934.795	775.4
935.226	778.4
935.658	775.8
936.089	778.6
936.521	780.5
936.952	782.6
937.383	780
937.815	781.6
938.246	778.4
938.677	784
939.108	775
939.54	776.5
939.971	777.1
940.402	781.5
940.833	773.8
941.264	775.6
941.695	777.2
942.126	774.5
942.557	776.2
942.988	771.9
943.419	779
943.85	774.5
944.281	776.3
944.712	779.3
945.143	780.1
945.574	776.9
946.004	777.1
946.435	775.9
946.866	774.8
947.297	771.4
947.727	779.7
948.158	779.1
948.588	776.9
949.019	775.9
949.45	779
949.88	778
950.311	779.4
950.741	776.8
951.172	778.5
951.602	779.7
952.032	778
952.463	774.4
952.893	768.9
953.323	776.9
953.754	776
954.184	780.7
954.614	779.2
955.044	780.7
955.475	782.9
955.905	779.4
956.335	777.2
956.765	776.4
957.195	777.2
957.625	778.8
958.055	779
958.485	778.5
958.915	774.7
959.345	779.4
959.775	780.3
960.204	772.6
960.634	774.9
961.064	779.8
961.494	781.3
961.924	774.1
962.353	776.8
962.783	777.1
963.213	779
963.642	773.9
964.072	774.8
964.501	779.1
964.931	778.2
965.361	771.6
965.79	775.8
966.219	776.3
966.649	776.5
967.078	779.2
967.508	774.7
967.937	775.3
968.366	778.5
968.796	779.6
969.225	777.5
969.654	778.3
970.083	772.2
970.513	777.6
970.942	779.8
971.371	777
971.8	774.2
972.229	776.6
972.658	781.3
973.087	780.5
973.516	779.6
973.945	775.6
974.374	778.3
974.803	775.9
975.232	775.4
975.66	775.5
976.089	773.6
976.518	778.2
976.947	776.6
977.375	773.6
977.804	777.2
978.233	780
978.661	779.8
979.09	777.2
979.519	778.4
979.947	777.5
980.376	774.9
980.804	772.7
981.233	778.2
981.661	775.1
982.09	777.6
982.518	774.9
982.946	778.6
983.375	775
983.803	778.6
984.231	782.2
984.659	776.2
985.088	775.9
985.516	777.1
985.944	777.5
986.372	778.8
986.8	771.1
987.228	778
987.656	778.7
988.084	776.2
988.512	779.6
988.94	775.9
989.368	775.4
989.796	774.8
990.224	772.7
990.652	779.5
991.08	779.4
991.507	775.9
991.935	777.2
992.363	777.1
992.791	775.6
993.218	777.4
993.646	775.3
994.074	778
994.501	782.9
994.929	778.5
995.356	781.5
995.784	781.8
996.211	781.5
996.639	774.1
997.066	777.1
997.493	774.5
997.921	774.6
998.348	773.9
998.775	776.5
999.203	775.9
999.63	775.3
1000.057	777.6
1000.484	771
1000.912	779.6
1001.339	778.8
1001.766	777.2
1002.193	779.6
1002.62	773.5
1003.047	774.2
1003.474	776.1
1003.901	772.9
1004.328	771.1
1004.755	771.6
1005.182	777.1
1005.608	779.3
1006.035	780
1006.462	774
1006.889	773.6
1007.316	774.9
1007.742	777.7
1008.169	776.5
1008.596	774.8
1009.022	779.2
1009.449	782.5
1009.875	773.2
1010.302	778.2
1010.728	775.9
1011.155	780
1011.581	780.2
1012.008	778.9
1012.434	772
1012.861	774.5
1013.287	778.6
1013.713	775.9
1014.139	779.6
1014.566	776.6
1014.992	779.4
1015.418	774.4
1015.844	776.9
1016.27	777.9
1016.697	777.9
1017.123	780.1
1017.549	774.3
1017.975	772.2
1018.401	773.6
1018.827	777.2
1019.253	777.6
1019.679	777.2
1020.104	773.4
1020.53	781.7
1020.956	775.4
1021.382	771.5
1021.808	780.8
1022.233	781.4
1022.659	776.6
1023.085	779
1023.51	771.6
1023.936	780
1024.362	774.7
1024.787	779.7
1025.213	784.6
1025.638	777
1026.064	783.1
1026.489	781
1026.915	776.7
1027.34	776.2
1027.765	779.8
1028.191	776.6
1028.616	772.6
1029.041	781.3
1029.467	776.9
1029.892	778.9
1030.317	777.6
1030.742	779.1
1031.167	779.4
1031.592	775.6
1032.018	773.4
1032.443	775.3
1032.868	773.1
1033.293	778.1
1033.718	777.4
1034.143	778
1034.567	775.4
1034.992	773
1035.417	778.4
1035.842	781.6
1036.267	773.6
1036.692	776.2
1037.116	774.1
1037.541	778.2
1037.966	776.6
1038.39	773.6
1038.815	775.9
1039.24	776.5
1039.664	777.7
1040.089	778.1
1040.513	778.2
1040.938	779
1041.362	775.5
1041.787	778.7
1042.211	770.6
1042.635	776.6
1043.06	778.3
1043.484	781
1043.908	773.8
1044.333	777
1044.757	777.6
1045.181	773.3
1045.605	776.6
1046.029	775
1046.454	773.6
1046.878	778.1
1047.302	778.4
1047.726	783.7
1048.15	775.1
1048.574	779.5
1048.998	773.4
1049.422	775.8
1049.845	774.5
1050.269	775
1050.693	777.7
1051.117	771.2
1051.541	777.3
1051.964	779.4
1052.388	780.5
1052.812	775.9
1053.235	776
1053.659	779.2
1054.083	774.4
1054.506	775.6
1054.93	773.1
1055.353	770.9
1055.777	776.3
1056.2	779.4
1056.624	773.2
1057.047	775.9
1057.471	776.6
1057.894	770.1
1058.317	776.1
1058.74	778.1
1059.164	773.8
1059.587	777.9
1060.01	776.9
1060.433	770.2
1060.856	778.7
1061.28	775.6
1061.703	779
1062.126	777.3
1062.549	777.6
1062.972	778
1063.395	776.4
1063.818	775.9
1064.241	774.8
1064.663	778.7
1065.086	778.7
1065.509	772.6
1065.932	774.7
1066.355	772.2
1066.777	772.6
1067.2	777
1067.623	771.5
1068.046	775.5
1068.468	777.2
1068.891	777.3
1069.313	776.8
1069.736	775.5
1070.158	774.5
1070.581	778.4
1071.003	774.5
1071.426	774.3
1071.848	779.3
1072.271	778.7
1072.693	773.8
1073.115	781.1
1073.538	772.9
1073.96	776.3
1074.382	777.4
1074.804	775.4
1075.226	774.5
1075.649	772.9
1076.071	782.9
1076.493	777
1076.915	775.7
1077.337	776.1
1077.759	774.7
1078.181	778.3
1078.603	777.8
1079.025	772.8
1079.447	775.4
1079.868	774.3
1080.29	779.2
1080.712	774.7
1081.134	773.5
1081.556	776.4
1081.977	777
1082.399	783.3
1082.821	774.4
1083.242	777.2
1083.664	775.1
1084.085	774
1084.507	776.4
1084.928	779
1085.35	775.1
1085.771	780.2
1086.193	782.2
1086.614	778.8
1087.036	778.6
1087.457	773.4
1087.878	778.1
1088.3	777.7
1088.721	777.5
1089.142	778.6
1089.563	776.1
1089.984	778.3
1090.406	775.8
1090.827	776.8
1091.248	777.9
1091.669	775
1092.09	777.1
1092.511	776.3
1092.932	775.6
1093.353	773.2
1093.774	779.1
1094.195	773.2
1094.615	780.2
1095.036	777.8
1095.457	777.2
1095.878	776.6
1096.299	777.5
1096.719	778.5
1097.14	778
1097.561	778.2
1097.981	776
1098.402	774.9
1098.822	775.2
1099.243	774.8
1099.663	775.2
1100.084	780.3
1100.504	779.2
1100.925	770.3
1101.345	777.7
1101.766	776.3
1102.186	777.2
1102.606	779.7
1103.026	777.6
1103.447	772.8
1103.867	778.6
1104.287	773.1
1104.707	778.2
