节点UV_HRD08281_00020.txt的数据
Date: Wed Jan 15 10:38:04 CST 2020
User: lab329
Spectrometer: HR+D0828
触发模式: 0
积分时间 (秒): 2.000000E-3
Scans to average: 10
启用暗噪声校正: false
启用非线性校正: false
滑动平均宽度: 0
X轴模式: Wavelengths
Number of Pixels in Spectrum: 2048
>>>>>Begin Spectral Data<<<<<
186.281	778.1
186.758	778.1
187.234	778.1
187.71	777.7
188.187	778.5
188.663	774.2
189.139	772.8
189.615	775.3
190.091	779.2
190.567	780.4
191.043	777.2
191.519	781.4
191.995	784.2
192.471	783.9
192.947	777.9
193.423	785
193.899	783.6
194.375	777.3
194.851	780.9
195.327	774.4
195.803	779.2
196.278	776.7
196.754	779.9
197.23	778.3
197.706	781.9
198.181	781.9
198.657	779
199.133	779
199.608	778.1
200.084	784.5
200.559	777.4
201.035	780.4
201.51	777.8
201.986	777.9
202.461	779.3
202.937	774.4
203.412	775.3
203.887	780.2
204.363	777.3
204.838	779.7
205.313	781.7
205.789	779.5
206.264	782.9
206.739	777.7
207.214	777.3
207.689	780
208.165	779.6
208.64	777.2
209.115	775.2
209.59	777.9
210.065	777.4
210.54	778.7
211.015	775.5
211.49	777
211.965	777.2
212.44	780
212.914	774.2
213.389	780.2
213.864	779.7
214.339	778.2
214.814	775.7
215.288	776.5
215.763	774.1
216.238	779.7
216.712	773.5
217.187	778.8
217.662	776.1
218.136	775.6
218.611	779.4
219.085	778
219.56	778.6
220.034	775.8
220.509	778.1
220.983	778.2
221.458	781
221.932	775.9
222.406	782.1
222.881	782.5
223.355	774.2
223.829	777.1
224.303	781.1
224.778	777.3
225.252	777.8
225.726	777.2
226.2	773.1
226.674	780.8
227.148	778
227.622	779.1
228.096	777.3
228.57	780.9
229.044	776.8
229.518	780.7
229.992	779.6
230.466	776.2
230.94	779.3
231.414	779.6
231.888	778.5
232.361	776.8
232.835	775.8
233.309	773.9
233.783	780.2
234.256	779.2
234.73	777.9
235.204	777
235.677	776.5
236.151	774.1
236.624	775.9
237.098	781.3
237.571	779.1
238.045	780.8
238.518	776.2
238.992	777
239.465	779.2
239.939	781.4
240.412	779
240.885	775
241.359	781.3
241.832	779.2
242.305	783
242.778	772.4
243.251	778.3
243.725	779.8
244.198	774.8
244.671	776
245.144	776.3
245.617	780.1
246.09	781.2
246.563	783.3
247.036	779.9
247.509	776.9
247.982	774.8
248.455	779.2
248.928	783.4
249.4	774.9
249.873	772.9
250.346	776.1
250.819	779.6
251.292	784.2
251.764	777.9
252.237	782
252.71	778.4
253.182	779
253.655	779.4
254.127	774
254.6	778.7
255.073	779.9
255.545	776.9
256.018	781.5
256.49	777.1
256.962	776.9
257.435	778.6
257.907	776.4
258.379	777
258.852	780.4
259.324	780.8
259.796	779.1
260.269	779.1
260.741	782.1
261.213	777.5
261.685	779
262.157	782.8
262.629	782.7
263.101	777.6
263.574	784.6
264.046	778.2
264.518	772.8
264.99	779
265.461	782.5
265.933	781
266.405	784.6
266.877	777.8
267.349	779.3
267.821	777.1
268.293	781.9
268.764	781.6
269.236	776.1
269.708	778.6
270.18	781.3
270.651	779.6
271.123	776.5
271.594	777.7
272.066	782.2
272.538	780.7
273.009	779.7
273.481	777
273.952	778.3
274.423	776
274.895	780.7
275.366	778.1
275.838	777.5
276.309	780.5
276.78	776
277.252	773.4
277.723	783.3
278.194	777.7
278.665	781.5
279.136	774.4
279.608	780.6
280.079	782.8
280.55	781
281.021	776.3
281.492	782.6
281.963	781.1
282.434	776.6
282.905	780.9
283.376	777.8
283.847	779.1
284.318	779.4
284.789	778.6
285.259	782.2
285.73	781.2
286.201	778.4
286.672	781.7
287.143	777.7
287.613	779.6
288.084	780.4
288.555	779.3
289.025	781.6
289.496	780.1
289.966	779.1
290.437	782.5
290.907	779.1
291.378	779
291.848	782.1
292.319	781.8
292.789	777.8
293.26	779.9
293.73	779.1
294.2	779.7
294.671	776.4
295.141	780.1
295.611	780.5
296.081	781.8
296.552	783.6
297.022	777.4
297.492	775.8
297.962	779.4
298.432	781.3
298.902	782.4
299.372	779.6
299.842	779.1
300.312	781.4
300.782	778.6
301.252	777.9
301.722	780.4
302.192	781.9
302.662	774.3
303.132	775.3
303.602	780.7
304.071	776.1
304.541	781.7
305.011	782.7
305.481	784.3
305.95	778
306.42	777
306.889	783
307.359	781.8
307.829	782.7
308.298	775.9
308.768	776.9
309.237	780.2
309.707	778.5
310.176	782.4
310.645	783.7
311.115	779.2
311.584	777.1
312.054	779.1
312.523	775.1
312.992	785.1
313.461	777.3
313.931	781.6
314.4	777.4
314.869	780.4
315.338	783.3
315.807	781
316.276	780.7
316.745	781.9
317.214	779.4
317.683	775.4
318.152	783.8
318.621	780.4
319.09	779.9
319.559	782.2
320.028	776.8
320.497	777.9
320.966	780.6
321.435	784.6
321.903	782.8
322.372	778.7
322.841	780.1
323.31	782.4
323.778	780.8
324.247	778.3
324.715	779.2
325.184	783.6
325.653	784.3
326.121	781
326.59	780.2
327.058	781.2
327.527	779.4
327.995	779.6
328.463	779.8
328.932	785.9
329.4	779.3
329.868	780.3
330.337	786.2
330.805	781.4
331.273	779.4
331.741	782.9
332.21	781
332.678	783.9
333.146	782.1
333.614	780.2
334.082	780.6
334.55	782.7
335.018	780.3
335.486	783.6
335.954	780.7
336.422	783
336.89	776.2
337.358	779.4
337.826	783
338.294	782.5
338.762	777.7
339.229	777.4
339.697	781.8
340.165	778
340.633	781.2
341.1	784.9
341.568	779.3
342.035	781.3
342.503	777.7
342.971	782.3
343.438	782.6
343.906	780.3
344.373	780.6
344.841	779.8
345.308	786.3
345.776	782.9
346.243	781.9
346.71	783.6
347.178	783.4
347.645	784
348.112	778.5
348.58	780.3
349.047	776.7
349.514	781.9
349.981	780.3
350.448	780.5
350.915	782.7
351.383	781.3
351.85	779.9
352.317	780.3
352.784	785.8
353.251	780.8
353.718	776.7
354.185	781.3
354.651	785.3
355.118	785.3
355.585	781.3
356.052	785.3
356.519	781.8
356.986	781.7
357.452	780.2
357.919	779.4
358.386	782.2
358.853	774.7
359.319	779.9
359.786	782.8
360.252	784.7
360.719	780.5
361.185	780.7
361.652	779.4
362.118	780.4
362.585	781.4
363.051	782.2
363.518	784
363.984	780.6
364.451	781
364.917	776.7
365.383	781.1
365.849	786.3
366.316	783
366.782	782.1
367.248	779
367.714	785.5
368.18	777.3
368.647	783.6
369.113	786.5
369.579	782.7
370.045	784.6
370.511	779.7
370.977	783.2
371.443	782.6
371.909	779.4
372.374	782.4
372.84	785.6
373.306	782.8
373.772	783.3
374.238	788.5
374.704	779.8
375.169	777.7
375.635	777
376.101	776.8
376.566	781.9
377.032	781.7
377.498	783
377.963	778.1
378.429	777.4
378.894	779.9
379.36	780.1
379.825	779.2
380.291	777.8
380.756	779.1
381.222	781.1
381.687	779.5
382.152	774.4
382.618	773.1
383.083	778.3
383.548	780.3
384.013	784.8
384.479	782.8
384.944	783.1
385.409	786.3
385.874	782.9
386.339	781.8
386.804	781.4
387.269	784.2
387.734	784.8
388.199	780
388.664	781.1
389.129	776.9
389.594	781.1
390.059	777.4
390.524	776.7
390.989	784
391.453	777.5
391.918	780.5
392.383	779.1
392.848	779.7
393.312	781.6
393.777	781.5
394.242	782.5
394.706	784
395.171	781.6
395.635	786.4
396.1	784.4
396.565	785
397.029	783.5
397.493	783.2
397.958	778.3
398.422	787.5
398.887	784.3
399.351	779.7
399.815	781.5
400.28	784.7
400.744	779.6
401.208	781.7
401.672	781.3
402.137	785.9
402.601	782.8
403.065	782.4
403.529	779.1
403.993	783.9
404.457	783.3
404.921	782
405.385	784.9
405.849	784.2
406.313	785.9
406.777	783.3
407.241	783.3
407.705	779.5
408.169	777.5
408.632	784.7
409.096	779.5
409.56	781.6
410.024	784.5
410.487	780.6
410.951	786.3
411.415	782.7
411.878	781.9
412.342	786.1
412.806	784.4
413.269	783.3
413.733	779.5
414.196	784.9
414.66	784.8
415.123	786.2
415.587	785.1
416.05	787.3
416.513	785.7
416.977	785
417.44	788.2
417.903	789.3
418.366	787.3
418.83	782.9
419.293	788.1
419.756	785.5
420.219	790.1
420.682	786
421.145	793.7
421.608	790.8
422.072	791.9
422.535	790.4
422.998	790.9
423.46	796.1
423.923	792.6
424.386	794.3
424.849	798.4
425.312	798.7
425.775	799.7
426.238	799.5
426.7	799.9
427.163	804.6
427.626	807.8
428.089	814.2
428.551	821.8
429.014	825.8
429.477	834
429.939	852.3
430.402	864.4
430.864	886.7
431.327	912.1
431.789	949.8
432.252	1006
432.714	1074.1
433.176	1157.3
433.639	1270
434.101	1410.1
434.563	1597.2
435.026	1813
435.488	2072.2
435.95	2384.4
436.412	2759.7
436.875	3206.3
437.337	3745.5
437.799	4346.5
438.261	4930.2
438.723	5697.2
439.185	6479.3
439.647	7261.4
440.109	8017.6
440.571	8667.9
441.033	9313.4
441.495	9997.2
441.957	10633
442.419	11065.7
442.881	11688.2
443.342	11735.8
443.804	11740.3
444.266	11796
444.728	11841.4
445.189	11564
445.651	11136.6
446.113	10467.2
446.574	9849.5
447.036	9226.5
447.497	8860.5
447.959	8416
448.421	7794.1
448.882	6950.2
449.343	6326.3
449.805	5649.2
450.266	5170.3
450.728	4730.9
451.189	4288.3
451.65	3839.6
452.112	3481.9
452.573	3128.5
453.034	2826.5
453.495	2508.8
453.957	2216.8
454.418	2006.3
454.879	1807.9
455.34	1657.5
455.801	1521.8
456.262	1414.4
456.723	1308.8
457.184	1239.9
457.645	1172.1
458.106	1115.2
458.567	1065.1
459.028	1024.7
459.489	992.8
459.95	959
460.41	934.4
460.871	912.6
461.332	900.9
461.793	889.2
462.253	876.2
462.714	866.3
463.175	855.9
463.635	849.1
464.096	843.5
464.556	840.5
465.017	836.2
465.478	832.6
465.938	827.8
466.398	824.4
466.859	825.2
467.319	820.5
467.78	814.4
468.24	815.3
468.7	811.9
469.161	809.8
469.621	812
470.081	811
470.541	806.3
471.002	804.5
471.462	798.4
471.922	805.4
472.382	804.6
472.842	799.7
473.302	799.2
473.762	802.4
474.222	794.9
474.682	801.4
475.142	804.9
475.602	803
476.062	795.9
476.522	797.6
476.982	801
477.442	801.8
477.901	800.2
478.361	801.1
478.821	800.3
479.281	799.3
479.74	798.6
480.2	798.8
480.659	794
481.119	798.2
481.579	793.5
482.038	799.2
482.498	789.2
482.957	787
483.417	785
483.876	784.6
484.336	780
484.795	784
485.254	783.5
485.714	780
486.173	778.5
486.632	780
487.091	781
487.551	780.7
488.01	778.9
488.469	781.1
488.928	783.2
489.387	784.2
489.846	785.3
490.305	774.5
490.764	780.8
491.223	781.4
491.682	775.3
492.141	784.1
492.6	781.9
493.059	783.3
493.518	778
493.977	776.7
494.436	779.9
494.895	779.2
495.353	783.2
495.812	778.5
496.271	783.9
496.729	774.5
497.188	780.6
497.647	776.6
498.105	781.2
498.564	778.8
499.022	777.6
499.481	778.7
499.939	777.7
500.398	780.2
500.856	783.6
501.315	774.9
501.773	776.5
502.232	782.6
502.69	780
503.148	778.8
503.606	778
504.065	780.4
504.523	776.7
504.981	779.4
505.439	778.4
505.897	784.4
506.356	779.7
506.814	778.5
507.272	774.6
507.73	777.2
508.188	781.2
508.646	784
509.104	778
509.562	779.6
510.02	779.3
510.477	779.5
510.935	778
511.393	777.8
511.851	776
512.309	777.6
512.766	778
513.224	781.6
513.682	773.9
514.139	774
514.597	778.2
515.055	777.7
515.512	775.6
515.97	780.3
516.427	775.4
516.885	779.5
517.342	775.2
517.8	780.1
518.257	782.3
518.714	782.2
519.172	778.5
519.629	774.4
520.086	773.6
520.544	776.4
521.001	778.6
521.458	777.4
521.915	776.8
522.373	780.2
522.83	782.1
523.287	775.8
523.744	782.7
524.201	778.4
524.658	775.8
525.115	785.1
525.572	779.7
526.029	775.3
526.486	780.3
526.943	778
527.4	781.1
527.857	775.7
528.313	776.4
528.77	777.8
529.227	777.1
529.684	778.5
530.14	779.2
530.597	780.3
531.054	778.8
531.51	776.9
531.967	776
532.423	779.3
532.88	775
533.337	774
533.793	771.6
534.25	775.2
534.706	778
535.162	777.2
535.619	774.7
536.075	779.2
536.531	773.2
536.988	778.8
537.444	775.3
537.9	779.3
538.356	771.3
538.813	772.5
539.269	779.5
539.725	774.5
540.181	780.1
540.637	776.9
541.093	779.3
541.549	775.7
542.005	776.5
542.461	775.1
542.917	776
543.373	772.9
543.829	776.6
544.285	772.1
544.741	773.7
545.197	777.9
545.652	773
546.108	777.3
546.564	780.6
547.02	779
547.475	776.8
547.931	776.9
548.387	777.1
548.842	774.1
549.298	778.5
549.753	771.6
550.209	772.6
550.664	778.2
551.12	776.7
551.575	778.9
552.031	781.2
552.486	775.1
552.941	776.1
553.397	777.2
553.852	774.3
554.307	778.1
554.762	774.1
555.218	773.9
555.673	778.7
556.128	775.2
556.583	774.4
557.038	775
557.493	775.4
557.948	780.4
558.403	777.1
558.858	773.6
559.313	778.7
559.768	775.9
560.223	776
560.678	776.4
561.133	776.7
561.588	774.9
562.043	778.9
562.497	775.9
562.952	779.9
563.407	775.4
563.862	775.3
564.316	780
564.771	775.4
565.226	773.8
565.68	776.1
566.135	775.3
566.589	776.8
567.044	776.6
567.498	774.7
567.953	774.2
568.407	777.1
568.862	772
569.316	778.4
569.77	781.3
570.225	774.7
570.679	780.5
571.133	776.6
571.587	779.4
572.042	778.3
572.496	778.9
572.95	772.9
573.404	776.7
573.858	775.9
574.312	776.6
574.766	771.8
575.22	776
575.674	775.6
576.128	777.5
576.582	772.4
577.036	774.2
577.49	771.3
577.944	778.3
578.398	776.9
578.852	783.3
579.305	777.2
579.759	776.9
580.213	776.1
580.666	777.1
581.12	771.9
581.574	770.9
582.027	779.4
582.481	776.1
582.935	772.5
583.388	774
583.842	778.1
584.295	779.6
584.748	779.6
585.202	772.2
585.655	777.5
586.109	771.2
586.562	777
587.015	776.2
587.469	776
587.922	776.4
588.375	772.7
588.828	775.8
589.281	780.9
589.735	774.8
590.188	778.1
590.641	777.8
591.094	779.5
591.547	774.7
592	776.7
592.453	777.1
592.906	778.3
593.359	775.4
593.812	775.2
594.265	775.7
594.717	780.6
595.17	774.8
595.623	776.4
596.076	777.8
596.529	776.9
596.981	776.4
597.434	771.3
597.887	773
598.339	772.1
598.792	775.3
599.245	772.3
599.697	774.3
600.15	777.9
600.602	773.2
601.055	775.7
601.507	779.9
601.959	776.2
602.412	778.9
602.864	774.7
603.316	779.8
603.769	776.6
604.221	775.8
604.673	774.1
605.126	776.8
605.578	776.1
606.03	773
606.482	775.9
606.934	778.1
607.386	775.7
607.838	777
608.29	773.7
608.742	777.4
609.194	772.4
609.646	777.5
610.098	776.7
610.55	775.2
611.002	778.1
611.454	772.7
611.906	773.7
612.357	779.1
612.809	776.9
613.261	773.7
613.713	777.8
614.164	777.2
614.616	777.4
615.068	772.7
615.519	781
615.971	774.9
616.422	778.5
616.874	771.4
617.325	783.2
617.777	774.8
618.228	771
618.68	776.9
619.131	777
619.582	775.8
620.034	775.4
620.485	771.8
620.936	774.5
621.387	770.8
621.839	776.1
622.29	772.1
622.741	773.3
623.192	776.9
623.643	773.8
624.094	775.7
624.545	781.6
624.996	775.8
625.447	776.8
625.898	774.3
626.349	777.3
626.8	775.7
627.251	778.2
627.702	777.2
628.153	772.4
628.604	778.2
629.054	777.4
629.505	777.1
629.956	778.4
630.406	772.9
630.857	774.1
631.308	779.6
631.758	776.8
632.209	776.5
632.66	776.4
633.11	779
633.561	776.6
634.011	773.2
634.461	774.9
634.912	778.6
635.362	772.1
635.813	771.8
636.263	773.1
636.713	776.3
637.164	779.7
637.614	774.4
638.064	774.7
638.514	771.4
638.964	779.4
639.415	773.6
639.865	779.3
640.315	775.2
640.765	773
641.215	782.9
641.665	772.1
642.115	774.9
642.565	776.4
643.015	770.7
643.465	777.7
643.915	774.8
644.364	773.9
644.814	773
645.264	774.5
645.714	775.3
646.163	774.9
646.613	781
647.063	776
647.513	774.1
647.962	774.1
648.412	772.3
648.861	773.1
649.311	775.9
649.76	775.4
650.21	772.8
650.659	771.9
651.109	778.1
651.558	774
652.008	776.1
652.457	771.7
652.906	770.1
653.356	771.5
653.805	772.7
654.254	774.5
654.703	775.5
655.152	770.5
655.602	776.1
656.051	773.9
656.5	779
656.949	777.5
657.398	775.3
657.847	779.8
658.296	775.8
658.745	777
659.194	775.5
659.643	780
660.092	775
660.541	779.3
660.989	775.8
661.438	774.1
661.887	773
662.336	774.9
662.784	773.9
663.233	771.1
663.682	772.4
664.13	776.5
664.579	777.4
665.028	773.4
665.476	777
665.925	770.5
666.373	777.1
666.822	776
667.27	771.2
667.719	775.2
668.167	779.6
668.615	778.5
669.064	778.6
669.512	772.1
669.96	773.7
670.408	776.2
670.857	778.7
671.305	776.8
671.753	776.5
672.201	779.1
672.649	771.2
673.097	775.3
673.545	775.9
673.993	774.5
674.441	775.1
674.889	778
675.337	775.3
675.785	772.7
676.233	774
676.681	773.7
677.129	771.4
677.577	775.5
678.025	776.2
678.472	779.2
678.92	777.1
679.368	780.4
679.815	779.3
680.263	775.9
680.711	774.2
681.158	777
681.606	781.2
682.053	774.5
682.501	778.3
682.948	770
683.396	773.7
683.843	772.6
684.291	776.2
684.738	774.8
685.185	775.2
685.633	775.4
686.08	774.9
686.527	779.5
686.974	776.4
687.422	776.6
687.869	772.9
688.316	772.4
688.763	773.5
689.21	775.4
689.657	774.9
690.104	774.6
690.551	772.3
690.998	775.1
691.445	775.3
691.892	773.8
692.339	776
692.786	772.6
693.233	774.1
693.68	771.7
694.127	777.1
694.573	774.2
695.02	774.5
695.467	775.9
695.913	777.4
696.36	776.3
696.807	776.7
697.253	774
697.7	776.1
698.146	775.8
698.593	770.4
699.039	774.6
699.486	778.3
699.932	772
700.379	772.4
700.825	780.9
701.272	774.1
701.718	777.3
702.164	769.8
702.61	774.2
703.057	778.9
703.503	775.3
703.949	778.6
704.395	775.3
704.841	775.4
705.287	772.7
705.734	773.2
706.18	776.2
706.626	774.7
707.072	779.5
707.518	778
707.964	774
708.409	776.2
708.855	772.9
709.301	775.4
709.747	777.4
710.193	774
710.639	777.5
711.084	781.4
711.53	777.8
711.976	778.3
712.421	773.7
712.867	772.4
713.313	777.6
713.758	772.7
714.204	770.5
714.649	777.6
715.095	778.6
715.54	777.4
715.986	776.3
716.431	775.9
716.877	775.4
717.322	779.3
717.767	771.1
718.213	778.7
718.658	778.8
719.103	775.4
719.548	774.4
719.994	774
720.439	778.8
720.884	775.6
721.329	772.1
721.774	773.3
722.219	780.5
722.664	774
723.109	780.9
723.554	775.4
723.999	776.1
724.444	777.1
724.889	775
725.334	773.2
725.779	777.2
726.223	768.4
726.668	772.2
727.113	775.4
727.558	775.9
728.002	773.1
728.447	776.4
728.892	777.3
729.336	776
729.781	770.6
730.225	777.1
730.67	776.1
731.114	771.5
731.559	779.6
732.003	777.4
732.448	774.4
732.892	776.7
733.337	772.6
733.781	774.2
734.225	781.8
734.67	781
735.114	779.4
735.558	776.3
736.002	776.7
736.446	775.7
736.891	773.4
737.335	776.2
737.779	772.3
738.223	776.8
738.667	777.2
739.111	774.1
739.555	776.1
739.999	778.2
740.443	774.3
740.887	780.8
741.33	772.2
741.774	778.7
742.218	776.6
742.662	776.5
743.106	772.7
743.549	775.4
743.993	776.4
744.437	779.3
744.88	773.1
745.324	773.4
745.768	774.9
746.211	780.3
746.655	770.4
747.098	774.1
747.542	780.3
747.985	778.3
748.429	776.4
748.872	775.3
749.315	781.3
749.759	780.6
750.202	776
750.645	774.7
751.089	773
751.532	775.4
751.975	779.5
752.418	773.9
752.861	780
753.305	778.3
753.748	771.8
754.191	775.7
754.634	778.7
755.077	774.3
755.52	776.9
755.963	778.8
756.406	778
756.849	776.2
757.291	774.9
757.734	776.4
758.177	780.3
758.62	771.7
759.063	774.3
759.505	774.2
759.948	780
760.391	780
760.833	774.4
761.276	775.9
761.719	779.1
762.161	772.4
762.604	777.5
763.046	774.5
763.489	779.8
763.931	780
764.374	773.6
764.816	777.3
765.258	781.8
765.701	779.7
766.143	776
766.585	776.7
767.028	773.7
767.47	779.6
767.912	775.3
768.354	775.7
768.796	774.6
769.238	777.3
769.681	775.1
770.123	781
770.565	779.3
771.007	779.8
771.449	775.4
771.891	780.5
772.333	779.7
772.774	776.7
773.216	774.5
773.658	778.2
774.1	777.6
774.542	778
774.984	780.9
775.425	777.9
775.867	778.3
776.309	777.3
776.75	778.9
777.192	777.6
777.634	779.9
778.075	777.3
778.517	776.3
778.958	774.9
779.4	775.9
779.841	776.6
780.283	775
780.724	776
781.165	774.5
781.607	778.4
782.048	776.3
782.489	773.9
782.931	773.8
783.372	774.3
783.813	776.3
784.254	779.6
784.695	772.7
785.136	776.9
785.578	777.6
786.019	777.7
786.46	776.4
786.901	773.1
787.342	780.7
787.783	783.3
788.224	777.6
788.664	780.7
789.105	777.4
789.546	777.3
789.987	777.5
790.428	783
790.869	770.6
791.309	778.2
791.75	776.1
792.191	773.4
792.631	778.1
793.072	777.6
793.513	779.3
793.953	775.3
794.394	771.5
794.834	773.7
795.275	774.2
795.715	775.4
796.156	781.5
796.596	777.7
797.036	773.6
797.477	780.3
797.917	776.1
798.357	774.3
798.798	777.6
799.238	776.6
799.678	777.8
800.118	776.1
800.558	775.8
800.998	771.3
801.439	779.1
801.879	780.4
802.319	776.2
802.759	777.8
803.199	778.1
803.639	774.7
804.079	773.9
804.518	779
804.958	777.3
805.398	777.7
805.838	774.2
806.278	772.9
806.718	779.5
807.157	779
807.597	774.7
808.037	772.2
808.476	773.4
808.916	775.3
809.356	779.1
809.795	776
810.235	779.3
810.674	776.8
811.114	779
811.553	779.9
811.993	777.5
812.432	777.6
812.871	777.2
813.311	780.8
813.75	777.7
814.189	776.9
814.629	780.5
815.068	775.6
815.507	777.9
815.946	781.9
816.385	779.5
816.824	774.8
817.263	773.9
817.703	770.4
818.142	779.2
818.581	776.2
819.02	776.7
819.459	780.1
819.897	779.9
820.336	777.6
820.775	776.9
821.214	775
821.653	779.1
822.092	772.2
822.53	771.9
822.969	773.3
823.408	780.2
823.847	774.4
824.285	776.7
824.724	780.6
825.162	773.9
825.601	776.4
826.04	776.2
826.478	777.9
826.916	781
827.355	772.7
827.793	778.9
828.232	774.6
828.67	776.3
829.108	775.6
829.547	773.9
829.985	779.2
830.423	773.3
830.862	776.5
831.3	776.3
831.738	774.7
832.176	778.5
832.614	779.4
833.052	776
833.49	777.7
833.928	778.3
834.366	774.8
834.804	780.8
835.242	779.6
835.68	779.4
836.118	778.2
836.556	777.8
836.994	775.7
837.432	777.9
837.869	780.5
838.307	780
838.745	775.9
839.183	780.2
839.62	783.1
840.058	776.2
840.496	781.7
840.933	773.5
841.371	778.3
841.808	777.5
842.246	772.9
842.683	778.7
843.121	777.9
843.558	775.1
843.995	775.4
844.433	776.8
844.87	775.6
845.307	780.3
845.745	779.9
846.182	778.6
846.619	777.3
847.056	774.4
847.494	777
847.931	779.9
848.368	776.8
848.805	773.8
849.242	775.6
849.679	780.6
850.116	773.2
850.553	777
850.99	777.8
851.427	776.2
851.864	782.4
852.301	775.8
852.737	780.6
853.174	771.9
853.611	775.1
854.048	776.6
854.484	774.7
854.921	779.6
855.358	776.4
855.794	777
856.231	776
856.668	774.7
857.104	774
857.541	774.9
857.977	777.7
858.414	782.2
858.85	775.8
859.286	778.4
859.723	774.7
860.159	779.4
860.596	775.6
861.032	774.7
861.468	774.4
861.904	777.5
862.341	779.7
862.777	775.7
863.213	775.1
863.649	776.7
864.085	775.9
864.521	773.8
864.957	774.3
865.393	772.1
865.829	781.3
866.265	774.3
866.701	778.6
867.137	775.3
867.573	775.8
868.009	779.1
868.445	777.1
868.88	778.2
869.316	779.5
869.752	774.7
870.188	770.7
870.623	771.5
871.059	774.5
871.495	779.5
871.93	774.8
872.366	781.3
872.801	779.1
873.237	778.8
873.672	776.3
874.108	771.8
874.543	776.4
874.979	777.6
875.414	775.7
875.849	777.7
876.285	774.6
876.72	778.2
877.155	778.9
877.59	778
878.026	782.1
878.461	777.6
878.896	776.7
879.331	775.7
879.766	774.1
880.201	778.3
880.636	774.8
881.071	771.9
881.506	776.2
881.941	778.7
882.376	776.8
882.811	777.3
883.246	777.2
883.681	777.9
884.116	778.1
884.55	779.8
884.985	779
885.42	774.9
885.855	776
886.289	776.4
886.724	776.1
887.159	776
887.593	774.3
888.028	779.6
888.462	779
888.897	779
889.331	782.9
889.766	780.5
890.2	781.6
890.634	776.7
891.069	777.4
891.503	778.8
891.937	774.3
892.372	778.7
892.806	773.4
893.24	777.3
893.674	780.6
894.109	775.5
894.543	776.2
894.977	774.7
895.411	775.9
895.845	781.4
896.279	776
896.713	776.2
897.147	770.9
897.581	776.6
898.015	777.7
898.449	776.9
898.883	781.2
899.316	782.4
899.75	776.1
900.184	777.8
900.618	775.6
901.051	774.8
901.485	779.2
901.919	772.5
902.352	778.2
902.786	773.6
903.22	773.3
903.653	777.7
904.087	779.9
904.52	782.2
904.954	773.8
905.387	774.7
905.82	773.4
906.254	780.2
906.687	775.1
907.121	774.8
907.554	775.6
907.987	773.3
908.42	775.1
908.854	779.6
909.287	776.9
909.72	778
910.153	779.3
910.586	776.1
911.019	777
911.452	777.4
911.885	777.2
912.318	778.5
912.751	779.4
913.184	775.9
913.617	777
914.05	780
914.483	785.5
914.916	777.6
915.348	773.7
915.781	775.2
916.214	777.7
916.647	778.4
917.079	777.7
917.512	777.9
917.944	777
918.377	776.5
918.81	775.9
919.242	773.3
919.675	778.5
920.107	773.8
920.54	775.8
920.972	775.1
921.404	778.4
921.837	776.8
922.269	775
922.701	778.1
923.134	778.5
923.566	777.6
923.998	776.2
924.43	779.3
924.863	777.5
925.295	775.6
925.727	775.6
926.159	777.7
926.591	781.9
927.023	773.5
927.455	781
927.887	777.7
928.319	780.3
928.751	774.4
929.183	783.2
929.615	775.1
930.046	777.6
930.478	778.3
930.91	777.4
931.342	776.1
931.773	777.2
932.205	775.7
932.637	778.3
933.068	775.8
933.5	778.9
933.932	781.3
934.363	776.9
934.795	778.9
935.226	777.4
935.658	777.2
936.089	778.9
936.521	777.4
936.952	774.4
937.383	777.2
937.815	780.1
938.246	774.6
938.677	774
939.108	779.8
939.54	777.1
939.971	777.9
940.402	776.7
940.833	772.7
941.264	781.3
941.695	778.8
942.126	777.6
942.557	778.2
942.988	777.2
943.419	777.8
943.85	780.6
944.281	777
944.712	775.3
945.143	774.7
945.574	779
946.004	780.9
946.435	775.6
946.866	778.4
947.297	776.7
947.727	774.9
948.158	777.4
948.588	780.4
949.019	779.2
949.45	775.8
949.88	774
950.311	778.9
950.741	779.1
951.172	777.7
951.602	779.8
952.032	780.6
952.463	773.8
952.893	782
953.323	778.1
953.754	783.5
954.184	773.8
954.614	778.2
955.044	776.7
955.475	778.5
955.905	779.1
956.335	777.9
956.765	779
957.195	774.1
957.625	780.4
958.055	779
958.485	772.5
958.915	771.3
959.345	774.2
959.775	776.1
960.204	775.3
960.634	775.4
961.064	773.5
961.494	775.4
961.924	777.9
962.353	777.2
962.783	780
963.213	780.9
963.642	775.5
964.072	775.6
964.501	778.3
964.931	779.1
965.361	776.5
965.79	774.9
966.219	781.3
966.649	778.6
967.078	778.7
967.508	773.8
967.937	776.5
968.366	779.4
968.796	778.7
969.225	776.7
969.654	773.6
970.083	783
970.513	775.3
970.942	773
971.371	778.3
971.8	781.9
972.229	774.5
972.658	775.5
973.087	773.9
973.516	777.2
973.945	776.2
974.374	775.8
974.803	778.8
975.232	775
975.66	778
976.089	774.1
976.518	778.1
976.947	776.9
977.375	779.3
977.804	774.4
978.233	780.1
978.661	774.4
979.09	777.1
979.519	773
979.947	778.7
980.376	777
980.804	775.2
981.233	775.4
981.661	773.8
982.09	777.2
982.518	776.3
982.946	780.3
983.375	772.8
983.803	780.5
984.231	776.2
984.659	777.2
985.088	776.3
985.516	776.8
985.944	774
986.372	781.3
986.8	777.5
987.228	777.8
987.656	774.3
988.084	777.2
988.512	776.1
988.94	774.7
989.368	780.1
989.796	774.6
990.224	778
990.652	780.2
991.08	774.7
991.507	773.7
991.935	780.6
992.363	774.9
992.791	780.4
993.218	779.4
993.646	779.3
994.074	778
994.501	779.3
994.929	772.3
995.356	780.2
995.784	774
996.211	776.3
996.639	778.9
997.066	778.6
997.493	775.9
997.921	776.6
998.348	777.9
998.775	780
999.203	778.9
999.63	774.2
1000.057	774.3
1000.484	779.5
1000.912	775.7
1001.339	774.5
1001.766	777.2
1002.193	773.3
1002.62	772.4
1003.047	777.1
1003.474	772.9
1003.901	776.2
1004.328	771.1
1004.755	777.2
1005.182	776.3
1005.608	772.5
1006.035	778.5
1006.462	776.9
1006.889	781.5
1007.316	776.7
1007.742	776.6
1008.169	774.3
1008.596	774.7
1009.022	774.4
1009.449	780.2
1009.875	773
1010.302	778.4
1010.728	778
1011.155	775.4
1011.581	774.8
1012.008	777.3
1012.434	777.8
1012.861	776.1
1013.287	773.6
1013.713	778.9
1014.139	770.8
1014.566	777
1014.992	772.4
1015.418	774.5
1015.844	778.2
1016.27	779.9
1016.697	773
1017.123	773.7
1017.549	778.9
1017.975	776.9
1018.401	780.7
1018.827	776.3
1019.253	777.5
1019.679	775.3
1020.104	782
1020.53	774.2
1020.956	772.7
1021.382	776.4
1021.808	780.5
1022.233	776.6
1022.659	777.1
1023.085	773.2
1023.51	773.6
1023.936	776.4
1024.362	779.5
1024.787	776.8
1025.213	775.1
1025.638	774.4
1026.064	779.8
1026.489	775.4
1026.915	779.3
1027.34	773.8
1027.765	778.2
1028.191	776.5
1028.616	777.5
1029.041	778.9
1029.467	774.3
1029.892	779.2
1030.317	773.5
1030.742	771.5
1031.167	774.7
1031.592	780.4
1032.018	773.4
1032.443	771.2
1032.868	773
1033.293	781.1
1033.718	773.9
1034.143	778.2
1034.567	778.6
1034.992	780.2
1035.417	779.5
1035.842	777.8
1036.267	781.7
1036.692	779.9
1037.116	778.8
1037.541	777.2
1037.966	776.6
1038.39	781.7
1038.815	779.9
1039.24	773
1039.664	777.8
1040.089	773.8
1040.513	778.8
1040.938	772.6
1041.362	776.4
1041.787	778.1
1042.211	773.5
1042.635	776.1
1043.06	777.2
1043.484	774.8
1043.908	777.3
1044.333	777.8
1044.757	776.2
1045.181	779.1
1045.605	779.4
1046.029	778.9
1046.454	778.6
1046.878	773.2
1047.302	773.5
1047.726	776.1
1048.15	776.1
1048.574	772.2
1048.998	774.1
1049.422	779.4
1049.845	780.2
1050.269	777.6
1050.693	774.2
1051.117	776.1
1051.541	774
1051.964	773.3
1052.388	773.9
1052.812	774.4
1053.235	777.6
1053.659	777.2
1054.083	772.5
1054.506	776.9
1054.93	777.7
1055.353	777.8
1055.777	775.3
1056.2	777.7
1056.624	776.6
1057.047	775
1057.471	776.5
1057.894	770.7
1058.317	775
1058.74	778.8
1059.164	775.1
1059.587	777.2
1060.01	777.8
1060.433	778.7
1060.856	769.7
1061.28	775.5
1061.703	777.1
1062.126	771.9
1062.549	774.9
1062.972	772
1063.395	774.7
1063.818	775.4
1064.241	772.8
1064.663	772.1
1065.086	774.3
1065.509	774.7
1065.932	776.1
1066.355	779.5
1066.777	777.8
1067.2	771.4
1067.623	780.2
1068.046	774.6
1068.468	774.3
1068.891	777.1
1069.313	774.7
1069.736	775.2
1070.158	773.3
1070.581	773
1071.003	776
1071.426	774.4
1071.848	777.4
1072.271	771.8
1072.693	776.7
1073.115	779.2
1073.538	775.9
1073.96	770.9
1074.382	771.8
1074.804	769.9
1075.226	774.9
1075.649	776
1076.071	775.7
1076.493	770.1
1076.915	776.9
1077.337	776.6
1077.759	777.1
1078.181	772.7
1078.603	771.3
1079.025	774.1
1079.447	779.4
1079.868	779.2
1080.29	771.3
1080.712	774.2
1081.134	776.4
1081.556	772.3
1081.977	774
1082.399	775.2
1082.821	780.3
1083.242	776
1083.664	778.5
1084.085	776.4
1084.507	775.7
1084.928	773.6
1085.35	772.5
1085.771	773.2
1086.193	777.5
1086.614	772
1087.036	772.6
1087.457	774.8
1087.878	775.4
1088.3	776.7
1088.721	775.7
1089.142	778.6
1089.563	772.2
1089.984	770.8
1090.406	775.7
1090.827	773.3
1091.248	772.8
1091.669	775.4
1092.09	775.6
1092.511	774.4
1092.932	776.7
1093.353	773.2
1093.774	776
1094.195	775.2
1094.615	773.5
1095.036	769.8
1095.457	779.3
1095.878	774.8
1096.299	776.3
1096.719	777.8
1097.14	773.3
1097.561	775.3
1097.981	782.5
1098.402	773.3
1098.822	777.7
1099.243	778.4
1099.663	778.4
1100.084	773.3
1100.504	774.5
1100.925	776
1101.345	772.1
1101.766	774.7
1102.186	774
1102.606	776.2
1103.026	774.2
1103.447	774.5
1103.867	777
1104.287	772.9
1104.707	777.5
